# header: 
#   title: Ni59(n,tot) cross section
#   source: EXFOR
#   user: Arjan Koning
#   date: 2025-12-18
#   format: YANDF-0.4
# exfor: 
#   author: Raman
#   year: 1975
#   subentry: 13774003
#   X4 reaction: 28-NI-59(N,TOT),,SIG
#   X4 source: IAEA-NDS C5 file, database version 2023-08-08
#   X4 link: https://nds.iaea.org/EXFOR/13774003
# target: 
#   Z: 28
#   A: 59
#   nuclide: Ni59
# reaction: 
#   type: (n,tot)
#   ENDF_MF: 3
#   ENDF_MT: 1
#   quantity: 
#     type: cross section
#   datablock: 
#     columns: 5
#     entries: 713
##       E             dE             xs             dxs       Normalization
##     [MeV]          [MeV]          [mb]           [mb]            []
   2.428200E-07   0.000000E+00   1.598200E+05   6.641300E+04   1.000000E+00
   2.450100E-07   0.000000E+00   9.141300E+04   6.163800E+04   1.000000E+00
   2.473300E-07   0.000000E+00  -2.692800E+04   6.040500E+04   1.000000E+00
   2.496900E-07   0.000000E+00   1.558300E+05   6.209700E+04   1.000000E+00
   2.520700E-07   0.000000E+00   6.017200E+03   6.049600E+04   1.000000E+00
   2.545000E-07   0.000000E+00  -8.151600E+04   6.421400E+04   1.000000E+00
   2.569500E-07   0.000000E+00  -2.948700E+04   6.221100E+04   1.000000E+00
   2.594500E-07   0.000000E+00   1.089500E+04   6.111900E+04   1.000000E+00
   2.619800E-07   0.000000E+00   1.109400E+05   6.007400E+04   1.000000E+00
   2.645400E-07   0.000000E+00   1.861300E+04   6.378000E+04   1.000000E+00
   2.671500E-07   0.000000E+00  -2.028700E+04   5.784700E+04   1.000000E+00
   2.697900E-07   0.000000E+00  -6.241300E+04   6.072200E+04   1.000000E+00
   2.724700E-07   0.000000E+00  -2.518300E+04   5.598500E+04   1.000000E+00
   2.751900E-07   0.000000E+00  -5.282300E+04   5.560000E+04   1.000000E+00
   2.779600E-07   0.000000E+00   4.036400E+04   5.390600E+04   1.000000E+00
   2.807600E-07   0.000000E+00   3.086300E+04   5.190000E+04   1.000000E+00
   2.836100E-07   0.000000E+00   2.554400E+04   5.143600E+04   1.000000E+00
   2.865000E-07   0.000000E+00   4.525400E+04   4.839100E+04   1.000000E+00
   2.894400E-07   0.000000E+00   4.428400E+04   4.690900E+04   1.000000E+00
   2.924200E-07   0.000000E+00   6.075600E+04   4.510600E+04   1.000000E+00
   2.954500E-07   0.000000E+00   7.241200E+04   4.220100E+04   1.000000E+00
   2.985200E-07   0.000000E+00   1.174000E+05   4.111400E+04   1.000000E+00
   3.016500E-07   0.000000E+00  -1.051400E+04   3.735300E+04   1.000000E+00
   3.048200E-07   0.000000E+00  -1.410200E+03   3.542700E+04   1.000000E+00
   3.080400E-07   0.000000E+00   3.368500E+04   3.444900E+04   1.000000E+00
   3.113200E-07   0.000000E+00   7.377700E+04   3.150000E+04   1.000000E+00
   3.146500E-07   0.000000E+00   4.200300E+04   3.009800E+04   1.000000E+00
   3.180300E-07   0.000000E+00   6.447000E+04   2.771500E+04   1.000000E+00
   3.214600E-07   0.000000E+00   3.945900E+04   2.637000E+04   1.000000E+00
   3.249500E-07   0.000000E+00   1.285300E+04   2.495400E+04   1.000000E+00
   3.285000E-07   0.000000E+00  -1.395000E+04   2.365200E+04   1.000000E+00
   3.321100E-07   0.000000E+00   4.850500E+04   2.231100E+04   1.000000E+00
   3.357700E-07   0.000000E+00   3.204100E+04   2.118300E+04   1.000000E+00
   3.395000E-07   0.000000E+00   8.304200E+04   2.016700E+04   1.000000E+00
   3.432900E-07   0.000000E+00   2.228700E+04   1.919300E+04   1.000000E+00
   3.471500E-07   0.000000E+00   4.583300E+04   1.812000E+04   1.000000E+00
   3.510700E-07   0.000000E+00   1.426700E+04   1.738300E+04   1.000000E+00
   3.550500E-07   0.000000E+00   1.844000E+04   1.653900E+04   1.000000E+00
   3.591100E-07   0.000000E+00   3.442300E+04   1.590000E+04   1.000000E+00
   3.632300E-07   0.000000E+00   4.123900E+04   1.526300E+04   1.000000E+00
   3.674300E-07   0.000000E+00   2.822900E+04   1.475200E+04   1.000000E+00
   3.716900E-07   0.000000E+00   3.804800E+03   1.408800E+04   1.000000E+00
   3.760400E-07   0.000000E+00   2.539300E+04   1.363100E+04   1.000000E+00
   3.804600E-07   0.000000E+00   3.381500E+04   1.318100E+04   1.000000E+00
   3.849600E-07   0.000000E+00   3.415800E+04   1.270600E+04   1.000000E+00
   3.895400E-07   0.000000E+00   1.754100E+04   1.228400E+04   1.000000E+00
   3.942000E-07   0.000000E+00   2.431800E+04   1.196500E+04   1.000000E+00
   3.989400E-07   0.000000E+00   5.071900E+04   1.157300E+04   1.000000E+00
   4.037700E-07   0.000000E+00   2.451300E+04   1.128300E+04   1.000000E+00
   4.086900E-07   0.000000E+00   2.268200E+02   1.096500E+04   1.000000E+00
   4.137000E-07   0.000000E+00   1.849400E+04   1.068200E+04   1.000000E+00
   4.188100E-07   0.000000E+00   2.328800E+04   1.034200E+04   1.000000E+00
   4.240000E-07   0.000000E+00   4.458300E+04   1.015300E+04   1.000000E+00
   4.293000E-07   0.000000E+00   2.025900E+04   9.917500E+03   1.000000E+00
   4.346900E-07   0.000000E+00   3.146500E+04   9.653500E+03   1.000000E+00
   4.401900E-07   0.000000E+00   2.440700E+04   9.446200E+03   1.000000E+00
   4.457900E-07   0.000000E+00   3.613600E+04   9.278500E+03   1.000000E+00
   4.515000E-07   0.000000E+00   3.158200E+04   9.058300E+03   1.000000E+00
   4.573200E-07   0.000000E+00   1.813600E+04   8.913700E+03   1.000000E+00
   4.632600E-07   0.000000E+00   1.574200E+04   8.723800E+03   1.000000E+00
   4.693100E-07   0.000000E+00   3.114500E+04   8.563500E+03   1.000000E+00
   4.754800E-07   0.000000E+00   2.781200E+04   8.394301E+03   1.000000E+00
   4.817700E-07   0.000000E+00   3.403200E+04   8.260801E+03   1.000000E+00
   4.881800E-07   0.000000E+00   2.016700E+04   8.142100E+03   1.000000E+00
   4.947300E-07   0.000000E+00   2.932800E+04   8.002600E+03   1.000000E+00
   5.014100E-07   0.000000E+00   1.500000E+04   7.870600E+03   1.000000E+00
   5.082200E-07   0.000000E+00   3.083500E+04   7.791500E+03   1.000000E+00
   5.151800E-07   0.000000E+00   2.368100E+04   7.648700E+03   1.000000E+00
   5.222800E-07   0.000000E+00   2.273900E+04   7.565500E+03   1.000000E+00
   5.295200E-07   0.000000E+00   2.749900E+04   7.468300E+03   1.000000E+00
   5.369200E-07   0.000000E+00   4.076600E+04   7.358700E+03   1.000000E+00
   5.444800E-07   0.000000E+00   2.541200E+04   7.297200E+03   1.000000E+00
   5.521900E-07   0.000000E+00   3.360900E+04   7.197300E+03   1.000000E+00
   5.600700E-07   0.000000E+00   3.391300E+04   7.098900E+03   1.000000E+00
   5.681200E-07   0.000000E+00   1.765300E+04   7.021700E+03   1.000000E+00
   5.763500E-07   0.000000E+00   2.647600E+04   6.984600E+03   1.000000E+00
   5.847500E-07   0.000000E+00   1.498100E+04   6.856700E+03   1.000000E+00
   5.933400E-07   0.000000E+00   1.694600E+04   6.793800E+03   1.000000E+00
   6.021200E-07   0.000000E+00   2.230000E+04   6.736700E+03   1.000000E+00
   6.111000E-07   0.000000E+00   2.121000E+04   6.649300E+03   1.000000E+00
   6.202800E-07   0.000000E+00   9.292000E+03   6.595500E+03   1.000000E+00
   6.296700E-07   0.000000E+00   2.505100E+04   6.518400E+03   1.000000E+00
   6.392700E-07   0.000000E+00   1.830400E+04   6.473700E+03   1.000000E+00
   6.490900E-07   0.000000E+00   1.117500E+04   6.392800E+03   1.000000E+00
   6.591400E-07   0.000000E+00   3.380900E+04   6.348500E+03   1.000000E+00
   6.694300E-07   0.000000E+00   2.227700E+04   6.286600E+03   1.000000E+00
   6.799600E-07   0.000000E+00   2.511700E+04   6.226800E+03   1.000000E+00
   6.907400E-07   0.000000E+00   2.261300E+04   6.181900E+03   1.000000E+00
   7.017800E-07   0.000000E+00   3.394100E+04   6.120600E+03   1.000000E+00
   7.130900E-07   0.000000E+00   2.562900E+04   6.077300E+03   1.000000E+00
   7.246700E-07   0.000000E+00   1.683300E+04   6.020500E+03   1.000000E+00
   7.365300E-07   0.000000E+00   3.277300E+04   5.956400E+03   1.000000E+00
   7.486900E-07   0.000000E+00   1.881000E+04   5.918900E+03   1.000000E+00
   7.611500E-07   0.000000E+00   2.925700E+04   5.857400E+03   1.000000E+00
   7.739300E-07   0.000000E+00   1.089600E+04   5.816200E+03   1.000000E+00
   7.870300E-07   0.000000E+00   2.043900E+04   5.773300E+03   1.000000E+00
   8.004700E-07   0.000000E+00   1.570300E+04   5.723600E+03   1.000000E+00
   8.142500E-07   0.000000E+00   2.585400E+04   5.696300E+03   1.000000E+00
   8.284000E-07   0.000000E+00   1.296900E+04   5.643700E+03   1.000000E+00
   8.429100E-07   0.000000E+00   1.266500E+04   5.590600E+03   1.000000E+00
   8.578100E-07   0.000000E+00   1.525300E+04   5.540100E+03   1.000000E+00
   8.731100E-07   0.000000E+00   2.629200E+04   5.522000E+03   1.000000E+00
   8.888200E-07   0.000000E+00   1.936300E+04   5.473100E+03   1.000000E+00
   9.049600E-07   0.000000E+00   1.510500E+04   5.432500E+03   1.000000E+00
   9.215400E-07   0.000000E+00   2.507100E+04   5.407400E+03   1.000000E+00
   9.385800E-07   0.000000E+00   2.748200E+04   5.366900E+03   1.000000E+00
   9.560999E-07   0.000000E+00   1.852700E+04   5.326700E+03   1.000000E+00
   9.741100E-07   0.000000E+00   2.047700E+04   5.292900E+03   1.000000E+00
   9.926400E-07   0.000000E+00   2.495900E+04   5.263300E+03   1.000000E+00
   1.011700E-06   0.000000E+00   2.531200E+04   5.219200E+03   1.000000E+00
   1.031300E-06   0.000000E+00   1.810100E+04   5.188400E+03   1.000000E+00
   1.051500E-06   0.000000E+00   2.009500E+04   5.157600E+03   1.000000E+00
   1.072300E-06   0.000000E+00   2.773900E+04   5.100000E+03   1.000000E+00
   1.093700E-06   0.000000E+00   2.513700E+04   5.086700E+03   1.000000E+00
   1.115800E-06   0.000000E+00   1.791500E+04   5.036600E+03   1.000000E+00
   1.135300E-06   0.000000E+00   2.454300E+04   6.601700E+03   1.000000E+00
   1.147200E-06   0.000000E+00   1.708400E+04   7.069500E+03   1.000000E+00
   1.159000E-06   0.000000E+00   4.007000E+04   7.032600E+03   1.000000E+00
   1.170900E-06   0.000000E+00   1.233400E+04   7.013500E+03   1.000000E+00
   1.183000E-06   0.000000E+00   2.243800E+04   6.985800E+03   1.000000E+00
   1.195400E-06   0.000000E+00   3.895500E+04   6.977500E+03   1.000000E+00
   1.207900E-06   0.000000E+00   1.514300E+04   6.929900E+03   1.000000E+00
   1.220600E-06   0.000000E+00   1.816700E+04   6.912400E+03   1.000000E+00
   1.233500E-06   0.000000E+00   2.763100E+04   6.886500E+03   1.000000E+00
   1.246600E-06   0.000000E+00   1.136300E+04   6.882100E+03   1.000000E+00
   1.259900E-06   0.000000E+00   2.364100E+04   6.840000E+03   1.000000E+00
   1.273500E-06   0.000000E+00   1.059900E+04   6.808200E+03   1.000000E+00
   1.287300E-06   0.000000E+00   1.685300E+04   6.814700E+03   1.000000E+00
   1.301200E-06   0.000000E+00   2.373100E+04   6.772000E+03   1.000000E+00
   1.315500E-06   0.000000E+00   2.521000E+04   6.757600E+03   1.000000E+00
   1.329900E-06   0.000000E+00   1.292400E+04   6.750400E+03   1.000000E+00
   1.344600E-06   0.000000E+00   2.923400E+04   6.698300E+03   1.000000E+00
   1.359500E-06   0.000000E+00   1.955800E+04   6.677500E+03   1.000000E+00
   1.374700E-06   0.000000E+00   2.869900E+04   6.666700E+03   1.000000E+00
   1.390200E-06   0.000000E+00   1.425900E+04   6.646000E+03   1.000000E+00
   1.405900E-06   0.000000E+00   1.269600E+04   6.605000E+03   1.000000E+00
   1.421800E-06   0.000000E+00   7.762200E+03   6.596300E+03   1.000000E+00
   1.438100E-06   0.000000E+00   2.173100E+04   6.583900E+03   1.000000E+00
   1.454600E-06   0.000000E+00   2.546000E+04   6.542600E+03   1.000000E+00
   1.471400E-06   0.000000E+00   2.586100E+04   6.534600E+03   1.000000E+00
   1.488500E-06   0.000000E+00   2.000400E+04   6.508100E+03   1.000000E+00
   1.505900E-06   0.000000E+00   1.500400E+04   6.470900E+03   1.000000E+00
   1.523700E-06   0.000000E+00   2.746100E+04   6.444400E+03   1.000000E+00
   1.541700E-06   0.000000E+00   8.127400E+03   6.428100E+03   1.000000E+00
   1.560000E-06   0.000000E+00   2.338200E+04   6.419400E+03   1.000000E+00
   1.578700E-06   0.000000E+00   1.906900E+04   6.371800E+03   1.000000E+00
   1.597700E-06   0.000000E+00   2.247400E+04   6.383300E+03   1.000000E+00
   1.617100E-06   0.000000E+00   2.067500E+04   6.356300E+03   1.000000E+00
   1.636800E-06   0.000000E+00   1.591700E+04   6.321100E+03   1.000000E+00
   1.656900E-06   0.000000E+00   2.200000E+04   6.296000E+03   1.000000E+00
   1.677300E-06   0.000000E+00   2.315500E+04   6.269000E+03   1.000000E+00
   1.698200E-06   0.000000E+00   1.921300E+04   6.237800E+03   1.000000E+00
   1.719400E-06   0.000000E+00   2.040200E+04   6.235100E+03   1.000000E+00
   1.741000E-06   0.000000E+00   3.274300E+04   6.204100E+03   1.000000E+00
   1.763000E-06   0.000000E+00   7.318600E+03   6.190100E+03   1.000000E+00
   1.785500E-06   0.000000E+00   1.447100E+04   6.174000E+03   1.000000E+00
   1.808400E-06   0.000000E+00   2.287500E+04   6.117400E+03   1.000000E+00
   1.831700E-06   0.000000E+00   2.418500E+04   6.103700E+03   1.000000E+00
   1.855500E-06   0.000000E+00   1.860400E+04   6.101400E+03   1.000000E+00
   1.879700E-06   0.000000E+00   1.949600E+04   6.058000E+03   1.000000E+00
   1.904400E-06   0.000000E+00   1.769400E+04   6.047700E+03   1.000000E+00
   1.929700E-06   0.000000E+00   7.481700E+03   6.014200E+03   1.000000E+00
   1.955400E-06   0.000000E+00   1.627000E+04   6.006700E+03   1.000000E+00
   1.981600E-06   0.000000E+00   2.123100E+04   5.989900E+03   1.000000E+00
   2.008400E-06   0.000000E+00   2.339400E+04   5.944900E+03   1.000000E+00
   2.035700E-06   0.000000E+00   1.795600E+04   5.928600E+03   1.000000E+00
   2.063600E-06   0.000000E+00   1.860000E+04   5.900400E+03   1.000000E+00
   2.092000E-06   0.000000E+00   2.956000E+04   5.888800E+03   1.000000E+00
   2.121100E-06   0.000000E+00   2.078700E+04   5.856000E+03   1.000000E+00
   2.150700E-06   0.000000E+00   1.418700E+04   5.830900E+03   1.000000E+00
   2.181000E-06   0.000000E+00   8.134700E+03   5.817500E+03   1.000000E+00
   2.211900E-06   0.000000E+00   1.483900E+04   5.797000E+03   1.000000E+00
   2.243500E-06   0.000000E+00   1.770800E+04   5.769600E+03   1.000000E+00
   2.275800E-06   0.000000E+00   1.067100E+04   5.746300E+03   1.000000E+00
   2.308800E-06   0.000000E+00   2.536900E+04   5.720200E+03   1.000000E+00
   2.342500E-06   0.000000E+00   9.519000E+03   5.699800E+03   1.000000E+00
   2.376900E-06   0.000000E+00   1.584900E+04   5.669100E+03   1.000000E+00
   2.412100E-06   0.000000E+00   8.665800E+03   5.652700E+03   1.000000E+00
   2.448100E-06   0.000000E+00   1.445800E+04   5.623500E+03   1.000000E+00
   2.484900E-06   0.000000E+00   1.409100E+04   5.606000E+03   1.000000E+00
   2.522500E-06   0.000000E+00   8.524500E+03   5.599400E+03   1.000000E+00
   2.561000E-06   0.000000E+00   1.278400E+04   5.570500E+03   1.000000E+00
   2.600400E-06   0.000000E+00   1.620700E+04   5.520100E+03   1.000000E+00
   2.640700E-06   0.000000E+00   1.838500E+04   5.523000E+03   1.000000E+00
   2.682000E-06   0.000000E+00   1.439000E+04   5.495700E+03   1.000000E+00
   2.724200E-06   0.000000E+00   1.633100E+04   5.460500E+03   1.000000E+00
   2.767400E-06   0.000000E+00   1.425600E+04   5.451400E+03   1.000000E+00
   2.811700E-06   0.000000E+00   1.595200E+04   5.440400E+03   1.000000E+00
   2.857000E-06   0.000000E+00   1.540700E+04   5.395800E+03   1.000000E+00
   2.903400E-06   0.000000E+00   1.324300E+04   5.370800E+03   1.000000E+00
   2.951000E-06   0.000000E+00   1.894600E+04   5.355200E+03   1.000000E+00
   2.999800E-06   0.000000E+00   1.712400E+04   5.336800E+03   1.000000E+00
   3.049800E-06   0.000000E+00   1.455700E+04   5.306500E+03   1.000000E+00
   3.101000E-06   0.000000E+00   1.702400E+04   5.283900E+03   1.000000E+00
   3.153500E-06   0.000000E+00   1.927100E+04   5.252500E+03   1.000000E+00
   3.207400E-06   0.000000E+00   1.712300E+04   5.237700E+03   1.000000E+00
   3.262700E-06   0.000000E+00   1.116300E+04   5.208000E+03   1.000000E+00
   3.319400E-06   0.000000E+00   1.308400E+04   5.191500E+03   1.000000E+00
   3.375100E-06   0.000000E+00   1.811100E+04   6.162300E+03   1.000000E+00
   3.409800E-06   0.000000E+00   2.370400E+04   7.298400E+03   1.000000E+00
   3.439900E-06   0.000000E+00   1.814500E+04   7.265200E+03   1.000000E+00
   3.470400E-06   0.000000E+00   5.607600E+03   7.263900E+03   1.000000E+00
   3.501300E-06   0.000000E+00   2.160900E+04   7.237300E+03   1.000000E+00
   3.532600E-06   0.000000E+00   1.401600E+04   7.233500E+03   1.000000E+00
   3.564400E-06   0.000000E+00   1.105100E+04   7.207300E+03   1.000000E+00
   3.596600E-06   0.000000E+00   2.311500E+04   7.182700E+03   1.000000E+00
   3.629200E-06   0.000000E+00   2.515500E+04   7.166000E+03   1.000000E+00
   3.662200E-06   0.000000E+00   5.849300E+03   7.149900E+03   1.000000E+00
   3.695800E-06   0.000000E+00   1.839300E+04   7.121700E+03   1.000000E+00
   3.729700E-06   0.000000E+00   1.209700E+04   7.114900E+03   1.000000E+00
   3.764200E-06   0.000000E+00   1.669200E+04   7.090900E+03   1.000000E+00
   3.799100E-06   0.000000E+00   2.083500E+04   7.102900E+03   1.000000E+00
   3.834600E-06   0.000000E+00   3.175500E+04   7.056400E+03   1.000000E+00
   3.870500E-06   0.000000E+00   2.972200E+04   7.038800E+03   1.000000E+00
   3.906900E-06   0.000000E+00   5.783200E+03   7.038100E+03   1.000000E+00
   3.943800E-06   0.000000E+00   1.704700E+04   7.011200E+03   1.000000E+00
   3.981300E-06   0.000000E+00   1.438400E+04   7.004900E+03   1.000000E+00
   4.001800E-06   0.000000E+00   1.196800E+04   2.418400E+04   1.000000E+00
   4.005000E-06   0.000000E+00  -4.194500E+03   2.410200E+04   1.000000E+00
   4.008200E-06   0.000000E+00   3.198800E+04   2.440900E+04   1.000000E+00
   4.011300E-06   0.000000E+00   3.194600E+04   2.415600E+04   1.000000E+00
   4.014500E-06   0.000000E+00   4.765000E+04   2.422700E+04   1.000000E+00
   4.017700E-06   0.000000E+00  -4.989700E+03   2.403100E+04   1.000000E+00
   4.020900E-06   0.000000E+00   2.193200E+04   2.425600E+04   1.000000E+00
   4.024100E-06   0.000000E+00   5.880699E+02   2.423800E+04   1.000000E+00
   4.027300E-06   0.000000E+00   1.055100E+05   2.415100E+04   1.000000E+00
   4.030500E-06   0.000000E+00   5.284200E+04   2.438300E+04   1.000000E+00
   4.033700E-06   0.000000E+00   7.703800E+04   2.438000E+04   1.000000E+00
   4.036900E-06   0.000000E+00   1.597000E+04   2.428300E+04   1.000000E+00
   4.040100E-06   0.000000E+00   1.998500E+04   2.411600E+04   1.000000E+00
   4.043300E-06   0.000000E+00   2.226700E+04   2.413300E+04   1.000000E+00
   4.046500E-06   0.000000E+00  -1.957400E+04   2.401300E+04   1.000000E+00
   4.049800E-06   0.000000E+00   2.355100E+04   2.411900E+04   1.000000E+00
   4.053000E-06   0.000000E+00   2.161200E+04   2.398300E+04   1.000000E+00
   4.056200E-06   0.000000E+00   6.384500E+03   2.417000E+04   1.000000E+00
   4.059500E-06   0.000000E+00   3.474100E+04   2.403300E+04   1.000000E+00
   4.062700E-06   0.000000E+00  -5.207100E+03   2.411000E+04   1.000000E+00
   4.065900E-06   0.000000E+00   5.464400E+04   2.411500E+04   1.000000E+00
   4.069200E-06   0.000000E+00   3.070300E+04   2.415200E+04   1.000000E+00
   4.072400E-06   0.000000E+00   4.505000E+04   2.418200E+04   1.000000E+00
   4.075700E-06   0.000000E+00  -1.971900E+04   2.405200E+04   1.000000E+00
   4.079000E-06   0.000000E+00   5.102700E+04   2.408600E+04   1.000000E+00
   4.082200E-06   0.000000E+00   4.473400E+04   2.413500E+04   1.000000E+00
   4.085500E-06   0.000000E+00   2.912800E+03   2.400900E+04   1.000000E+00
   4.088800E-06   0.000000E+00   2.354300E+04   2.414400E+04   1.000000E+00
   4.092000E-06   0.000000E+00  -1.551700E+04   2.400900E+04   1.000000E+00
   4.095300E-06   0.000000E+00   2.053200E+04   2.406900E+04   1.000000E+00
   4.098600E-06   0.000000E+00  -1.150200E+04   2.394100E+04   1.000000E+00
   4.101900E-06   0.000000E+00  -1.202300E+04   2.394600E+04   1.000000E+00
   4.105200E-06   0.000000E+00  -1.864500E+04   2.428800E+04   1.000000E+00
   4.108500E-06   0.000000E+00   1.274100E+03   2.427500E+04   1.000000E+00
   4.111800E-06   0.000000E+00  -2.553900E+04   2.416000E+04   1.000000E+00
   4.115100E-06   0.000000E+00   1.592400E+04   2.389700E+04   1.000000E+00
   4.118400E-06   0.000000E+00   8.032500E+04   2.410700E+04   1.000000E+00
   4.121700E-06   0.000000E+00   4.969800E+02   2.406800E+04   1.000000E+00
   4.125000E-06   0.000000E+00   5.504100E+04   2.406100E+04   1.000000E+00
   4.128300E-06   0.000000E+00   2.576500E+03   2.404700E+04   1.000000E+00
   4.131600E-06   0.000000E+00   1.969700E+04   2.387300E+04   1.000000E+00
   4.135000E-06   0.000000E+00   1.197700E+04   2.402600E+04   1.000000E+00
   4.138300E-06   0.000000E+00   3.724400E+04   2.399100E+04   1.000000E+00
   4.141600E-06   0.000000E+00  -1.722300E+03   2.395000E+04   1.000000E+00
   4.145000E-06   0.000000E+00   9.577900E+03   2.380500E+04   1.000000E+00
   4.148300E-06   0.000000E+00  -1.877700E+03   2.400500E+04   1.000000E+00
   4.151700E-06   0.000000E+00   2.741800E+04   2.394500E+04   1.000000E+00
   4.155000E-06   0.000000E+00   3.811700E+04   2.379000E+04   1.000000E+00
   4.158400E-06   0.000000E+00  -2.272800E+04   2.398700E+04   1.000000E+00
   4.161700E-06   0.000000E+00  -2.599300E+04   2.403900E+04   1.000000E+00
   4.165100E-06   0.000000E+00   3.705900E+04   2.411300E+04   1.000000E+00
   4.168500E-06   0.000000E+00   5.487000E+04   2.410400E+04   1.000000E+00
   4.171800E-06   0.000000E+00   3.417200E+04   2.386800E+04   1.000000E+00
   4.175200E-06   0.000000E+00  -4.801300E+04   2.388900E+04   1.000000E+00
   4.178600E-06   0.000000E+00  -1.676800E+04   2.400800E+04   1.000000E+00
   4.182000E-06   0.000000E+00   2.919500E+04   2.374200E+04   1.000000E+00
   4.185300E-06   0.000000E+00   2.015500E+04   2.391900E+04   1.000000E+00
   4.188700E-06   0.000000E+00   1.229200E+04   2.381200E+04   1.000000E+00
   4.192100E-06   0.000000E+00   3.944300E+04   2.390700E+04   1.000000E+00
   4.195500E-06   0.000000E+00   1.441400E+04   2.409200E+04   1.000000E+00
   4.198900E-06   0.000000E+00  -3.406900E+04   2.370900E+04   1.000000E+00
   4.202300E-06   0.000000E+00   1.068300E+04   2.388800E+04   1.000000E+00
   4.205800E-06   0.000000E+00   1.536300E+04   2.395000E+04   1.000000E+00
   4.209200E-06   0.000000E+00  -6.243600E+03   2.387000E+04   1.000000E+00
   4.212600E-06   0.000000E+00   1.570900E+04   2.388100E+04   1.000000E+00
   4.216000E-06   0.000000E+00   6.619500E+04   2.397100E+04   1.000000E+00
   4.219500E-06   0.000000E+00   5.341800E+04   2.387200E+04   1.000000E+00
   4.222900E-06   0.000000E+00   6.266800E+04   2.387800E+04   1.000000E+00
   4.226300E-06   0.000000E+00   4.802700E+04   2.393800E+04   1.000000E+00
   4.229800E-06   0.000000E+00   3.069900E+04   2.381300E+04   1.000000E+00
   4.233200E-06   0.000000E+00   1.137200E+04   2.394100E+04   1.000000E+00
   4.236700E-06   0.000000E+00   3.271600E+04   2.395700E+04   1.000000E+00
   4.240100E-06   0.000000E+00   3.573200E+04   2.394400E+04   1.000000E+00
   4.243600E-06   0.000000E+00   8.178800E+03   2.404200E+04   1.000000E+00
   4.247000E-06   0.000000E+00   4.484600E+03   2.399300E+04   1.000000E+00
   4.250500E-06   0.000000E+00  -1.345000E+03   2.390700E+04   1.000000E+00
   4.254000E-06   0.000000E+00   6.138000E+04   2.367600E+04   1.000000E+00
   4.257400E-06   0.000000E+00   7.271200E+03   2.385100E+04   1.000000E+00
   4.260900E-06   0.000000E+00   8.023800E+03   2.384800E+04   1.000000E+00
   4.264400E-06   0.000000E+00  -3.542200E+04   2.396400E+04   1.000000E+00
   4.267900E-06   0.000000E+00   1.004200E+04   2.369200E+04   1.000000E+00
   4.271400E-06   0.000000E+00   2.079200E+04   2.378300E+04   1.000000E+00
   4.274900E-06   0.000000E+00  -9.006800E+03   2.372900E+04   1.000000E+00
   4.278400E-06   0.000000E+00   7.540100E+04   2.374600E+04   1.000000E+00
   4.281900E-06   0.000000E+00   2.653900E+04   2.363400E+04   1.000000E+00
   4.304800E-06   0.000000E+00   1.581400E+04   6.860400E+03   1.000000E+00
   4.347600E-06   0.000000E+00   5.141600E+03   6.834400E+03   1.000000E+00
   4.390900E-06   0.000000E+00   1.275100E+04   6.847300E+03   1.000000E+00
   4.435000E-06   0.000000E+00   9.193300E+03   6.815000E+03   1.000000E+00
   4.479700E-06   0.000000E+00   1.201200E+04   6.798100E+03   1.000000E+00
   4.504100E-06   0.000000E+00   6.986800E+03   2.348800E+04   1.000000E+00
   4.507900E-06   0.000000E+00   4.289600E+02   2.331000E+04   1.000000E+00
   4.511700E-06   0.000000E+00  -2.172400E+04   2.342300E+04   1.000000E+00
   4.515500E-06   0.000000E+00  -6.959000E+03   2.361800E+04   1.000000E+00
   4.519300E-06   0.000000E+00   1.312400E+04   2.358200E+04   1.000000E+00
   4.523100E-06   0.000000E+00  -1.086600E+04   2.334000E+04   1.000000E+00
   4.526900E-06   0.000000E+00  -4.380400E+04   2.357700E+04   1.000000E+00
   4.530700E-06   0.000000E+00   4.779300E+02   2.357200E+04   1.000000E+00
   4.534600E-06   0.000000E+00   1.417100E+04   2.317100E+04   1.000000E+00
   4.538400E-06   0.000000E+00   2.353900E+04   2.368000E+04   1.000000E+00
   4.542200E-06   0.000000E+00  -2.585300E+04   2.348200E+04   1.000000E+00
   4.546100E-06   0.000000E+00  -3.318200E+04   2.332200E+04   1.000000E+00
   4.549900E-06   0.000000E+00   1.699100E+04   2.360800E+04   1.000000E+00
   4.553700E-06   0.000000E+00   9.385700E+03   2.349100E+04   1.000000E+00
   4.557600E-06   0.000000E+00   1.648100E+04   2.342000E+04   1.000000E+00
   4.561400E-06   0.000000E+00   3.765100E+04   2.346000E+04   1.000000E+00
   4.565300E-06   0.000000E+00   1.045100E+04   2.343400E+04   1.000000E+00
   4.569200E-06   0.000000E+00   2.634000E+04   2.341400E+04   1.000000E+00
   4.573000E-06   0.000000E+00   3.066000E+04   2.319600E+04   1.000000E+00
   4.576900E-06   0.000000E+00   1.142900E+03   2.341200E+04   1.000000E+00
   4.580800E-06   0.000000E+00   4.280800E+04   2.352600E+04   1.000000E+00
   4.584700E-06   0.000000E+00   4.597300E+04   2.353300E+04   1.000000E+00
   4.588600E-06   0.000000E+00   8.615100E+04   2.356800E+04   1.000000E+00
   4.592500E-06   0.000000E+00   5.250100E+04   2.327200E+04   1.000000E+00
   4.596300E-06   0.000000E+00   9.630800E+03   2.336400E+04   1.000000E+00
   4.600300E-06   0.000000E+00   5.817200E+04   2.326500E+04   1.000000E+00
   4.604200E-06   0.000000E+00   2.525700E+03   2.343500E+04   1.000000E+00
   4.608100E-06   0.000000E+00   3.950500E+04   2.334500E+04   1.000000E+00
   4.612000E-06   0.000000E+00  -2.073300E+04   2.353300E+04   1.000000E+00
   4.615900E-06   0.000000E+00  -2.842000E+03   2.338100E+04   1.000000E+00
   4.619800E-06   0.000000E+00   5.074600E+03   2.360000E+04   1.000000E+00
   4.623800E-06   0.000000E+00   2.500700E+04   2.320400E+04   1.000000E+00
   4.627700E-06   0.000000E+00   4.977900E+04   2.334500E+04   1.000000E+00
   4.631700E-06   0.000000E+00   5.350500E+04   2.341800E+04   1.000000E+00
   4.635600E-06   0.000000E+00  -1.785600E+04   2.319000E+04   1.000000E+00
   4.639600E-06   0.000000E+00  -1.130600E+04   2.340400E+04   1.000000E+00
   4.665400E-06   0.000000E+00   1.017300E+04   6.739300E+03   1.000000E+00
   4.713700E-06   0.000000E+00   1.645400E+04   6.726200E+03   1.000000E+00
   4.762600E-06   0.000000E+00   1.633500E+04   6.692800E+03   1.000000E+00
   4.812400E-06   0.000000E+00   2.388000E+03   6.665200E+03   1.000000E+00
   4.862900E-06   0.000000E+00   2.205900E+04   6.660800E+03   1.000000E+00
   4.914300E-06   0.000000E+00   1.969300E+04   6.650200E+03   1.000000E+00
   4.966500E-06   0.000000E+00   1.415900E+04   6.639100E+03   1.000000E+00
   5.019400E-06   0.000000E+00   1.455600E+04   6.617300E+03   1.000000E+00
   5.073300E-06   0.000000E+00   6.316700E+03   6.620100E+03   1.000000E+00
   5.128000E-06   0.000000E+00   1.193000E+04   6.608700E+03   1.000000E+00
   5.183600E-06   0.000000E+00   1.298400E+04   6.621800E+03   1.000000E+00
   5.240100E-06   0.000000E+00   2.801600E+04   6.593200E+03   1.000000E+00
   5.297600E-06   0.000000E+00   1.381500E+04   6.564400E+03   1.000000E+00
   5.356000E-06   0.000000E+00   1.020900E+04   6.517400E+03   1.000000E+00
   5.415400E-06   0.000000E+00   1.883800E+04   6.481800E+03   1.000000E+00
   5.475700E-06   0.000000E+00   2.289000E+04   6.461000E+03   1.000000E+00
   5.537100E-06   0.000000E+00   1.393500E+04   6.438700E+03   1.000000E+00
   5.599500E-06   0.000000E+00   1.982000E+04   6.430000E+03   1.000000E+00
   5.663000E-06   0.000000E+00   1.499600E+03   6.428500E+03   1.000000E+00
   5.727600E-06   0.000000E+00   1.450100E+04   6.401700E+03   1.000000E+00
   5.793200E-06   0.000000E+00   2.161500E+04   6.377400E+03   1.000000E+00
   5.860000E-06   0.000000E+00   1.795300E+04   6.362700E+03   1.000000E+00
   5.928000E-06   0.000000E+00   1.049800E+04   6.345600E+03   1.000000E+00
   5.997200E-06   0.000000E+00   1.633000E+04   6.331800E+03   1.000000E+00
   6.067600E-06   0.000000E+00   1.300300E+04   6.288300E+03   1.000000E+00
   6.139200E-06   0.000000E+00  -5.241700E+03   6.287900E+03   1.000000E+00
   6.212100E-06   0.000000E+00   1.709000E+04   6.268700E+03   1.000000E+00
   6.286300E-06   0.000000E+00   1.800600E+04   6.267000E+03   1.000000E+00
   6.361800E-06   0.000000E+00   1.497900E+04   6.240600E+03   1.000000E+00
   6.438800E-06   0.000000E+00   1.699700E+04   6.224300E+03   1.000000E+00
   6.517100E-06   0.000000E+00   5.325600E+03   6.202200E+03   1.000000E+00
   6.596800E-06   0.000000E+00   9.202200E+03   6.185700E+03   1.000000E+00
   6.678100E-06   0.000000E+00   2.039100E+04   6.182600E+03   1.000000E+00
   6.760800E-06   0.000000E+00  -2.930800E+03   6.148200E+03   1.000000E+00
   6.845100E-06   0.000000E+00   1.199900E+04   6.131700E+03   1.000000E+00
   6.930900E-06   0.000000E+00   5.603600E+03   6.105000E+03   1.000000E+00
   7.018400E-06   0.000000E+00   1.505900E+04   6.091200E+03   1.000000E+00
   7.107600E-06   0.000000E+00   1.166200E+04   6.062900E+03   1.000000E+00
   7.198500E-06   0.000000E+00   7.222700E+03   6.048100E+03   1.000000E+00
   7.291100E-06   0.000000E+00   1.235000E+04   6.036100E+03   1.000000E+00
   7.385500E-06   0.000000E+00   1.219800E+04   6.027200E+03   1.000000E+00
   7.481800E-06   0.000000E+00   1.334800E+04   6.018500E+03   1.000000E+00
   7.580000E-06   0.000000E+00  -3.688300E+03   5.979700E+03   1.000000E+00
   7.680100E-06   0.000000E+00   1.145200E+04   5.966200E+03   1.000000E+00
   7.782200E-06   0.000000E+00   1.478800E+04   5.943900E+03   1.000000E+00
   7.886400E-06   0.000000E+00   1.990600E+04   5.929600E+03   1.000000E+00
   7.992600E-06   0.000000E+00   1.494600E+04   5.921100E+03   1.000000E+00
   8.101100E-06   0.000000E+00   9.750000E+03   5.896000E+03   1.000000E+00
   8.211700E-06   0.000000E+00   2.110600E+04   5.876400E+03   1.000000E+00
   8.324701E-06   0.000000E+00   1.148200E+04   5.870500E+03   1.000000E+00
   8.439901E-06   0.000000E+00   1.896800E+04   5.828300E+03   1.000000E+00
   8.557600E-06   0.000000E+00   1.887700E+04   5.820200E+03   1.000000E+00
   8.677800E-06   0.000000E+00   4.040200E+03   5.809700E+03   1.000000E+00
   8.800500E-06   0.000000E+00   1.182900E+04   5.781000E+03   1.000000E+00
   8.925900E-06   0.000000E+00  -8.254500E+02   5.777100E+03   1.000000E+00
   9.053900E-06   0.000000E+00   1.232000E+04   5.745500E+03   1.000000E+00
   9.184700E-06   0.000000E+00   1.307000E+04   5.728500E+03   1.000000E+00
   9.318401E-06   0.000000E+00   1.343300E+04   5.720100E+03   1.000000E+00
   9.455000E-06   0.000000E+00   1.613900E+04   5.672300E+03   1.000000E+00
   9.594600E-06   0.000000E+00   5.814900E+03   5.674300E+03   1.000000E+00
   9.737400E-06   0.000000E+00   1.560700E+04   5.667000E+03   1.000000E+00
   9.883300E-06   0.000000E+00   2.224100E+04   5.629300E+03   1.000000E+00
   1.003300E-05   0.000000E+00   1.441400E+04   5.611200E+03   1.000000E+00
   1.018500E-05   0.000000E+00   2.242300E+04   5.596500E+03   1.000000E+00
   1.034100E-05   0.000000E+00   1.747100E+04   5.568700E+03   1.000000E+00
   1.050100E-05   0.000000E+00   1.642900E+04   5.560200E+03   1.000000E+00
   1.066500E-05   0.000000E+00   1.021700E+04   5.529600E+03   1.000000E+00
   1.083200E-05   0.000000E+00   1.937600E+04   5.519200E+03   1.000000E+00
   1.100400E-05   0.000000E+00   1.866300E+04   5.517800E+03   1.000000E+00
   1.117900E-05   0.000000E+00   9.414500E+03   5.482800E+03   1.000000E+00
   1.135900E-05   0.000000E+00   1.147300E+04   5.471300E+03   1.000000E+00
   1.154300E-05   0.000000E+00   1.156600E+04   5.444300E+03   1.000000E+00
   1.173100E-05   0.000000E+00   2.040000E+04   5.427700E+03   1.000000E+00
   1.192500E-05   0.000000E+00   1.767500E+04   5.413100E+03   1.000000E+00
   1.212300E-05   0.000000E+00   1.627600E+04   5.391000E+03   1.000000E+00
   1.232600E-05   0.000000E+00   1.961400E+04   5.363800E+03   1.000000E+00
   1.253400E-05   0.000000E+00   1.322900E+04   5.351100E+03   1.000000E+00
   1.274700E-05   0.000000E+00   9.243500E+03   5.326500E+03   1.000000E+00
   1.296600E-05   0.000000E+00   1.381600E+04   5.299700E+03   1.000000E+00
   1.319100E-05   0.000000E+00   1.625400E+04   5.291400E+03   1.000000E+00
   1.342100E-05   0.000000E+00   7.422700E+03   5.270500E+03   1.000000E+00
   1.365800E-05   0.000000E+00   1.045600E+04   5.252900E+03   1.000000E+00
   1.390100E-05   0.000000E+00   1.780400E+04   5.227500E+03   1.000000E+00
   1.415100E-05   0.000000E+00   5.230100E+03   5.226300E+03   1.000000E+00
   1.440700E-05   0.000000E+00   1.510000E+04   5.182900E+03   1.000000E+00
   1.467000E-05   0.000000E+00   6.506300E+03   5.166900E+03   1.000000E+00
   1.494100E-05   0.000000E+00   6.936500E+03   5.135400E+03   1.000000E+00
   1.521900E-05   0.000000E+00   1.330900E+04   5.125900E+03   1.000000E+00
   1.550500E-05   0.000000E+00   1.404400E+04   5.114500E+03   1.000000E+00
   1.579900E-05   0.000000E+00   6.535500E+03   5.090400E+03   1.000000E+00
   1.610200E-05   0.000000E+00   1.278800E+04   5.077800E+03   1.000000E+00
   1.641300E-05   0.000000E+00   2.532200E+03   5.058500E+03   1.000000E+00
   1.673300E-05   0.000000E+00   1.602000E+04   5.030500E+03   1.000000E+00
   1.706300E-05   0.000000E+00   9.708101E+03   5.006700E+03   1.000000E+00
   1.740300E-05   0.000000E+00   1.428900E+04   4.990800E+03   1.000000E+00
   1.775300E-05   0.000000E+00   1.504900E+04   4.972900E+03   1.000000E+00
   1.811400E-05   0.000000E+00   7.725200E+03   4.974300E+03   1.000000E+00
   1.848600E-05   0.000000E+00   2.063500E+04   4.998900E+03   1.000000E+00
   1.886900E-05   0.000000E+00   2.365700E+04   4.938800E+03   1.000000E+00
   1.926500E-05   0.000000E+00   1.949200E+04   4.901700E+03   1.000000E+00
   1.967300E-05   0.000000E+00   2.305500E+04   4.872400E+03   1.000000E+00
   2.009400E-05   0.000000E+00   9.682900E+03   4.861700E+03   1.000000E+00
   2.052900E-05   0.000000E+00   6.091400E+03   4.835100E+03   1.000000E+00
   2.097800E-05   0.000000E+00   1.371100E+04   4.813500E+03   1.000000E+00
   2.144200E-05   0.000000E+00   5.705800E+03   4.782200E+03   1.000000E+00
   2.192100E-05   0.000000E+00   2.022700E+04   4.772100E+03   1.000000E+00
   2.241700E-05   0.000000E+00   1.167100E+04   4.748000E+03   1.000000E+00
   2.293000E-05   0.000000E+00   1.449400E+04   4.725200E+03   1.000000E+00
   2.346100E-05   0.000000E+00   1.415800E+04   4.709900E+03   1.000000E+00
   2.401000E-05   0.000000E+00   1.233200E+04   4.688500E+03   1.000000E+00
   2.457900E-05   0.000000E+00   1.121700E+04   4.669400E+03   1.000000E+00
   2.516800E-05   0.000000E+00   1.027500E+04   4.638600E+03   1.000000E+00
   2.577900E-05   0.000000E+00   9.417800E+03   4.625300E+03   1.000000E+00
   2.641200E-05   0.000000E+00   1.565000E+04   4.605200E+03   1.000000E+00
   2.706900E-05   0.000000E+00  -1.003600E+02   4.661900E+03   1.000000E+00
   2.775000E-05   0.000000E+00   1.299000E+04   5.321200E+03   1.000000E+00
   2.845800E-05   0.000000E+00   1.526700E+04   4.564700E+03   1.000000E+00
   2.919300E-05   0.000000E+00   1.196300E+04   4.525700E+03   1.000000E+00
   2.995700E-05   0.000000E+00   2.041400E+04   4.495400E+03   1.000000E+00
   3.075100E-05   0.000000E+00   1.516700E+04   4.469800E+03   1.000000E+00
   3.157800E-05   0.000000E+00   1.002600E+04   4.446200E+03   1.000000E+00
   3.243800E-05   0.000000E+00   1.434200E+04   4.422900E+03   1.000000E+00
   3.333400E-05   0.000000E+00   2.163000E+04   4.399100E+03   1.000000E+00
   3.426700E-05   0.000000E+00   1.278400E+04   4.383200E+03   1.000000E+00
   3.524000E-05   0.000000E+00   1.335200E+04   4.361000E+03   1.000000E+00
   3.625500E-05   0.000000E+00   1.027300E+04   4.334000E+03   1.000000E+00
   3.731500E-05   0.000000E+00   4.276200E+03   4.319200E+03   1.000000E+00
   3.842200E-05   0.000000E+00   9.887399E+03   4.289600E+03   1.000000E+00
   3.957900E-05   0.000000E+00   1.160400E+04   4.267400E+03   1.000000E+00
   4.078800E-05   0.000000E+00   1.922100E+04   4.249400E+03   1.000000E+00
   4.205500E-05   0.000000E+00   7.245400E+03   4.220700E+03   1.000000E+00
   4.338100E-05   0.000000E+00   1.129300E+04   4.196900E+03   1.000000E+00
   4.477100E-05   0.000000E+00   1.332700E+04   4.167500E+03   1.000000E+00
   4.622800E-05   0.000000E+00   1.023900E+04   4.147200E+03   1.000000E+00
   4.775800E-05   0.000000E+00   1.099400E+04   4.125200E+03   1.000000E+00
   4.936600E-05   0.000000E+00   1.117900E+04   4.103100E+03   1.000000E+00
   5.105600E-05   0.000000E+00   1.498400E+04   4.078800E+03   1.000000E+00
   5.283400E-05   0.000000E+00   1.277400E+04   4.053400E+03   1.000000E+00
   5.470600E-05   0.000000E+00   1.546000E+04   4.030600E+03   1.000000E+00
   5.668000E-05   0.000000E+00   8.659400E+03   4.007800E+03   1.000000E+00
   5.876300E-05   0.000000E+00   1.200800E+04   3.987900E+03   1.000000E+00
   6.096300E-05   0.000000E+00   1.541700E+04   3.953900E+03   1.000000E+00
   6.328900E-05   0.000000E+00   2.247300E+04   3.990600E+03   1.000000E+00
   6.575000E-05   0.000000E+00   1.420600E+04   4.190000E+03   1.000000E+00
   6.835800E-05   0.000000E+00   1.719200E+04   4.007100E+03   1.000000E+00
   7.112400E-05   0.000000E+00   1.528700E+04   3.868300E+03   1.000000E+00
   7.406100E-05   0.000000E+00   9.632800E+03   3.834100E+03   1.000000E+00
   7.718400E-05   0.000000E+00   1.898500E+04   3.802000E+03   1.000000E+00
   8.051000E-05   0.000000E+00   1.596200E+04   3.780800E+03   1.000000E+00
   8.405400E-05   0.000000E+00   2.238600E+04   4.052300E+03   1.000000E+00
   8.783799E-05   0.000000E+00   1.688600E+04   5.625400E+03   1.000000E+00
   9.188400E-05   0.000000E+00   1.526900E+04   4.679300E+03   1.000000E+00
   9.621499E-05   0.000000E+00   1.745200E+04   3.695700E+03   1.000000E+00
   1.008600E-04   0.000000E+00   1.963000E+04   3.744000E+03   1.000000E+00
   1.058500E-04   0.000000E+00   2.726600E+04   3.649900E+03   1.000000E+00
   1.112200E-04   0.000000E+00   1.456200E+04   3.624500E+03   1.000000E+00
   1.170100E-04   0.000000E+00   2.159100E+04   3.662500E+03   1.000000E+00
   1.232600E-04   0.000000E+00   2.912600E+04   4.284200E+03   1.000000E+00
   1.300300E-04   0.000000E+00   2.952300E+04   3.534900E+03   1.000000E+00
   1.373700E-04   0.000000E+00   2.918400E+04   3.527300E+03   1.000000E+00
   1.453500E-04   0.000000E+00   4.043400E+04   3.471200E+03   1.000000E+00
   1.540500E-04   0.000000E+00   5.287600E+04   3.453100E+03   1.000000E+00
   1.635500E-04   0.000000E+00   7.816400E+04   3.564200E+03   1.000000E+00
   1.694600E-04   0.000000E+00   9.697000E+04   8.472200E+03   1.000000E+00
   1.712200E-04   0.000000E+00   1.176100E+05   8.442899E+03   1.000000E+00
   1.730100E-04   0.000000E+00   1.364900E+05   8.477500E+03   1.000000E+00
   1.748300E-04   0.000000E+00   1.433100E+05   8.501601E+03   1.000000E+00
   1.766700E-04   0.000000E+00   1.731300E+05   8.503300E+03   1.000000E+00
   1.785500E-04   0.000000E+00   1.970400E+05   8.532300E+03   1.000000E+00
   1.804500E-04   0.000000E+00   2.148000E+05   8.613200E+03   1.000000E+00
   1.823800E-04   0.000000E+00   2.509000E+05   8.667400E+03   1.000000E+00
   1.843500E-04   0.000000E+00   3.069000E+05   8.760300E+03   1.000000E+00
   1.863500E-04   0.000000E+00   3.816000E+05   8.896900E+03   1.000000E+00
   1.883800E-04   0.000000E+00   4.847500E+05   9.140801E+03   1.000000E+00
   1.904400E-04   0.000000E+00   6.159200E+05   9.454899E+03   1.000000E+00
   1.925400E-04   0.000000E+00   8.035600E+05   1.058400E+04   1.000000E+00
   1.946700E-04   0.000000E+00   1.091000E+06   1.109900E+04   1.000000E+00
   1.968400E-04   0.000000E+00   1.484500E+06   1.236600E+04   1.000000E+00
   1.990500E-04   0.000000E+00   2.066400E+06   1.514400E+04   1.000000E+00
   2.012900E-04   0.000000E+00   2.714000E+06   1.938900E+04   1.000000E+00
   2.035700E-04   0.000000E+00   3.111100E+06   2.281300E+04   1.000000E+00
   2.058900E-04   0.000000E+00   2.879900E+06   2.075100E+04   1.000000E+00
   2.082500E-04   0.000000E+00   2.207700E+06   1.595200E+04   1.000000E+00
   2.106500E-04   0.000000E+00   1.583000E+06   1.262800E+04   1.000000E+00
   2.130900E-04   0.000000E+00   1.128500E+06   1.082200E+04   1.000000E+00
   2.155700E-04   0.000000E+00   8.338000E+05   1.020100E+04   1.000000E+00
   2.181000E-04   0.000000E+00   6.273100E+05   9.261900E+03   1.000000E+00
   2.206700E-04   0.000000E+00   4.948700E+05   8.894200E+03   1.000000E+00
   2.232900E-04   0.000000E+00   3.567100E+05   8.666601E+03   1.000000E+00
   2.259500E-04   0.000000E+00   2.997100E+05   9.204100E+03   1.000000E+00
   2.286700E-04   0.000000E+00   2.442400E+05   8.519200E+03   1.000000E+00
   2.314300E-04   0.000000E+00   2.079700E+05   8.436900E+03   1.000000E+00
   2.342400E-04   0.000000E+00   1.861800E+05   8.811800E+03   1.000000E+00
   2.371100E-04   0.000000E+00   1.621100E+05   8.169100E+03   1.000000E+00
   2.400200E-04   0.000000E+00   1.386600E+05   8.087100E+03   1.000000E+00
   2.430000E-04   0.000000E+00   1.126700E+05   8.055899E+03   1.000000E+00
   2.460200E-04   0.000000E+00   9.366400E+04   8.027200E+03   1.000000E+00
   2.491100E-04   0.000000E+00   9.424000E+04   7.984400E+03   1.000000E+00
   2.522500E-04   0.000000E+00   7.039800E+04   7.924900E+03   1.000000E+00
   2.562600E-04   0.000000E+00   7.317500E+04   6.471000E+03   1.000000E+00
   2.595400E-04   0.000000E+00   5.950400E+04   1.119000E+04   1.000000E+00
   2.612000E-04   0.000000E+00   5.453600E+04   1.149500E+04   1.000000E+00
   2.628800E-04   0.000000E+00   6.409300E+04   1.123300E+04   1.000000E+00
   2.645800E-04   0.000000E+00   5.859300E+04   1.108900E+04   1.000000E+00
   2.662900E-04   0.000000E+00   5.538700E+04   1.109200E+04   1.000000E+00
   2.680200E-04   0.000000E+00   6.020200E+04   1.115000E+04   1.000000E+00
   2.697600E-04   0.000000E+00   5.942300E+04   1.135700E+04   1.000000E+00
   2.715200E-04   0.000000E+00   2.824900E+04   1.110600E+04   1.000000E+00
   2.733000E-04   0.000000E+00   5.953400E+04   1.109100E+04   1.000000E+00
   2.751000E-04   0.000000E+00   5.587900E+04   1.113900E+04   1.000000E+00
   2.769200E-04   0.000000E+00   4.424100E+04   1.116000E+04   1.000000E+00
   2.787500E-04   0.000000E+00   1.939200E+04   1.098100E+04   1.000000E+00
   2.806000E-04   0.000000E+00   3.142800E+04   1.102900E+04   1.000000E+00
   2.824700E-04   0.000000E+00   3.717300E+04   1.092500E+04   1.000000E+00
   2.843600E-04   0.000000E+00   5.516500E+04   1.096000E+04   1.000000E+00
   2.862700E-04   0.000000E+00   4.222100E+04   1.091900E+04   1.000000E+00
   2.881900E-04   0.000000E+00   3.165100E+04   1.094700E+04   1.000000E+00
   2.901400E-04   0.000000E+00   2.674600E+04   1.097200E+04   1.000000E+00
   2.921100E-04   0.000000E+00   4.194800E+04   1.095300E+04   1.000000E+00
   2.940900E-04   0.000000E+00   4.216200E+04   1.089900E+04   1.000000E+00
   2.961000E-04   0.000000E+00   1.131700E+04   1.091700E+04   1.000000E+00
   2.981300E-04   0.000000E+00   3.063500E+04   1.081100E+04   1.000000E+00
   3.001800E-04   0.000000E+00   3.018600E+04   1.082500E+04   1.000000E+00
   3.022400E-04   0.000000E+00   3.096100E+04   1.082500E+04   1.000000E+00
   3.043400E-04   0.000000E+00   1.881400E+04   1.083800E+04   1.000000E+00
   3.064500E-04   0.000000E+00   4.162200E+04   1.084000E+04   1.000000E+00
   3.085800E-04   0.000000E+00   3.119000E+04   1.081200E+04   1.000000E+00
   3.107400E-04   0.000000E+00   1.092600E+04   1.102800E+04   1.000000E+00
   3.129200E-04   0.000000E+00   7.291500E+04   1.094800E+04   1.000000E+00
   3.151200E-04   0.000000E+00  -8.269500E+03   1.091500E+04   1.000000E+00
   3.173500E-04   0.000000E+00   2.250100E+03   1.077100E+04   1.000000E+00
   3.196000E-04   0.000000E+00  -3.029500E+03   1.089400E+04   1.000000E+00
   3.218700E-04   0.000000E+00   2.542800E+04   1.077800E+04   1.000000E+00
   3.241700E-04   0.000000E+00   1.937500E+04   1.075100E+04   1.000000E+00
   3.264900E-04   0.000000E+00   2.718500E+04   1.076100E+04   1.000000E+00
   3.288400E-04   0.000000E+00   2.912600E+04   1.074800E+04   1.000000E+00
   3.312100E-04   0.000000E+00   2.599500E+04   1.073800E+04   1.000000E+00
   3.336100E-04   0.000000E+00   4.571200E+04   1.082500E+04   1.000000E+00
   3.360400E-04   0.000000E+00  -1.264500E+03   1.083200E+04   1.000000E+00
   3.384900E-04   0.000000E+00   1.905400E+04   1.077500E+04   1.000000E+00
   3.409700E-04   0.000000E+00   1.996000E+04   1.076900E+04   1.000000E+00
   3.434800E-04   0.000000E+00   2.086400E+04   1.071400E+04   1.000000E+00
   3.460100E-04   0.000000E+00   2.572100E+04   1.068400E+04   1.000000E+00
   3.485700E-04   0.000000E+00   1.606600E+04   1.068400E+04   1.000000E+00
   3.511600E-04   0.000000E+00  -3.502700E+04   1.081800E+04   1.000000E+00
   3.537800E-04   0.000000E+00   1.103900E+04   1.066200E+04   1.000000E+00
   3.564300E-04   0.000000E+00   8.640900E+04   1.079400E+04   1.000000E+00
   3.591100E-04   0.000000E+00   3.322200E+04   1.059900E+04   1.000000E+00
   3.618200E-04   0.000000E+00  -1.523400E+03   1.059300E+04   1.000000E+00
   3.645600E-04   0.000000E+00   2.042800E+04   1.055500E+04   1.000000E+00
   3.673300E-04   0.000000E+00  -1.378800E+04   1.060300E+04   1.000000E+00
   3.701300E-04   0.000000E+00   4.837300E+04   1.060100E+04   1.000000E+00
   3.729700E-04   0.000000E+00   1.735800E+04   1.057400E+04   1.000000E+00
   3.758300E-04   0.000000E+00   1.664200E+04   1.054700E+04   1.000000E+00
   3.787400E-04   0.000000E+00   5.243800E+03   1.051900E+04   1.000000E+00
   3.816700E-04   0.000000E+00   5.010800E+03   1.046600E+04   1.000000E+00
   3.846400E-04   0.000000E+00   4.017100E+04   1.049500E+04   1.000000E+00
   3.876400E-04   0.000000E+00   4.516000E+03   1.084700E+04   1.000000E+00
   3.906800E-04   0.000000E+00   1.480400E+04   1.300500E+04   1.000000E+00
   3.937600E-04   0.000000E+00   2.409500E+04   2.028800E+04   1.000000E+00
   3.968700E-04   0.000000E+00   4.539200E+03   1.153400E+04   1.000000E+00
   4.000200E-04   0.000000E+00   2.642700E+04   1.074100E+04   1.000000E+00
   4.097300E-04   0.000000E+00   1.193000E+04   4.751800E+03   1.000000E+00
   4.266500E-04   0.000000E+00   9.944101E+03   4.652000E+03   1.000000E+00
   4.446500E-04   0.000000E+00   1.814600E+04   4.675800E+03   1.000000E+00
   4.638000E-04   0.000000E+00   7.731500E+03   4.590700E+03   1.000000E+00
   4.842200E-04   0.000000E+00   8.215900E+03   4.550100E+03   1.000000E+00
   5.060200E-04   0.000000E+00   1.201800E+04   4.535300E+03   1.000000E+00
   5.293300E-04   0.000000E+00   1.436800E+04   4.508200E+03   1.000000E+00
   5.542900E-04   0.000000E+00   1.456400E+04   4.487800E+03   1.000000E+00
   5.810500E-04   0.000000E+00   9.930899E+03   4.470300E+03   1.000000E+00
   6.098000E-04   0.000000E+00   5.401300E+03   4.420500E+03   1.000000E+00
   6.407300E-04   0.000000E+00   7.038800E+03   4.405600E+03   1.000000E+00
   6.740800E-04   0.000000E+00   4.076300E+03   4.488400E+03   1.000000E+00
   7.101100E-04   0.000000E+00   1.596400E+04   4.336600E+03   1.000000E+00
   7.491000E-04   0.000000E+00   1.714300E+04   4.482600E+03   1.000000E+00
   7.914000E-04   0.000000E+00   1.779500E+04   4.335300E+03   1.000000E+00
   8.373800E-04   0.000000E+00   1.143400E+04   4.286300E+03   1.000000E+00
   8.874900E-04   0.000000E+00   1.474300E+04   4.278600E+03   1.000000E+00
   9.422300E-04   0.000000E+00   8.504800E+03   4.200500E+03   1.000000E+00
   1.002200E-03   0.000000E+00   1.309900E+04   4.156600E+03   1.000000E+00
   1.068100E-03   0.000000E+00   1.111600E+04   4.169900E+03   1.000000E+00
   1.140700E-03   0.000000E+00   1.295000E+04   4.155600E+03   1.000000E+00
   1.221000E-03   0.000000E+00   1.204300E+04   4.035000E+03   1.000000E+00
   1.310000E-03   0.000000E+00   1.243000E+04   3.996700E+03   1.000000E+00
   1.409200E-03   0.000000E+00   1.096400E+04   4.102900E+03   1.000000E+00
   1.520000E-03   0.000000E+00   1.090600E+04   3.964200E+03   1.000000E+00
   1.644500E-03   0.000000E+00   1.454800E+04   3.967800E+03   1.000000E+00
   1.726000E-03   0.000000E+00   2.012400E+04   8.752100E+03   1.000000E+00
   1.754700E-03   0.000000E+00   1.073400E+04   8.739899E+03   1.000000E+00
   1.784200E-03   0.000000E+00   1.549100E+04   8.708101E+03   1.000000E+00
   1.814400E-03   0.000000E+00   9.876300E+03   8.721100E+03   1.000000E+00
   1.845300E-03   0.000000E+00   2.481300E+04   8.673601E+03   1.000000E+00
   1.877100E-03   0.000000E+00   1.690300E+04   8.636699E+03   1.000000E+00
   1.909700E-03   0.000000E+00  -3.476900E+03   8.702900E+03   1.000000E+00
   1.943200E-03   0.000000E+00   8.876400E+03   8.659000E+03   1.000000E+00
   1.977600E-03   0.000000E+00  -1.362200E+04   8.607000E+03   1.000000E+00
   2.012900E-03   0.000000E+00  -8.054400E+03   8.654199E+03   1.000000E+00
   2.049100E-03   0.000000E+00   7.013200E+03   8.949199E+03   1.000000E+00
   2.086300E-03   0.000000E+00  -1.172500E+04   8.750900E+03   1.000000E+00
   2.124500E-03   0.000000E+00  -2.874200E+03   8.601700E+03   1.000000E+00
   2.163800E-03   0.000000E+00  -6.423100E+03   8.555199E+03   1.000000E+00
   2.204200E-03   0.000000E+00   9.481000E+03   8.504699E+03   1.000000E+00
   2.245800E-03   0.000000E+00  -5.627100E+03   8.498399E+03   1.000000E+00
   2.288500E-03   0.000000E+00  -1.262900E+04   8.491300E+03   1.000000E+00
   2.332500E-03   0.000000E+00  -1.693000E+02   8.529300E+03   1.000000E+00
   2.377700E-03   0.000000E+00  -4.369800E+03   8.613600E+03   1.000000E+00
   2.424300E-03   0.000000E+00  -1.580700E+04   8.445100E+03   1.000000E+00
   2.472200E-03   0.000000E+00  -5.558000E+03   8.594000E+03   1.000000E+00
   2.521600E-03   0.000000E+00  -1.951900E+04   8.432700E+03   1.000000E+00
   2.572500E-03   0.000000E+00  -3.439700E+03   8.530400E+03   1.000000E+00
   2.624900E-03   0.000000E+00  -7.830300E+03   8.348500E+03   1.000000E+00
   2.679000E-03   0.000000E+00   1.262400E+04   8.551000E+03   1.000000E+00
   2.734800E-03   0.000000E+00   2.028200E+04   8.239899E+03   1.000000E+00
   2.792300E-03   0.000000E+00   1.178400E+04   8.195300E+03   1.000000E+00
   2.851600E-03   0.000000E+00  -1.743400E+03   8.160900E+03   1.000000E+00
   2.912800E-03   0.000000E+00   4.241100E+03   8.170500E+03   1.000000E+00
   2.976100E-03   0.000000E+00   6.941700E+02   8.172300E+03   1.000000E+00
   3.041400E-03   0.000000E+00   6.455500E+03   8.246300E+03   1.000000E+00
   3.108900E-03   0.000000E+00   1.127000E+04   8.170500E+03   1.000000E+00
   3.178700E-03   0.000000E+00   7.696300E+04   8.534100E+03   1.000000E+00
   3.250800E-03   0.000000E+00   4.021300E+04   8.206500E+03   1.000000E+00
   3.325500E-03   0.000000E+00   9.933400E+03   8.241000E+03   1.000000E+00
   3.402700E-03   0.000000E+00   1.399500E+04   8.106800E+03   1.000000E+00
   3.482600E-03   0.000000E+00  -4.218100E+02   8.126800E+03   1.000000E+00
   3.565500E-03   0.000000E+00  -7.950300E+02   8.066399E+03   1.000000E+00
   3.651300E-03   0.000000E+00   2.156600E+04   8.046601E+03   1.000000E+00
   3.740200E-03   0.000000E+00   4.448500E+03   8.043400E+03   1.000000E+00
   3.832400E-03   0.000000E+00   9.415000E+03   8.046400E+03   1.000000E+00
   3.928100E-03   0.000000E+00   2.804700E+04   8.027400E+03   1.000000E+00
   4.027400E-03   0.000000E+00   3.623500E+04   8.031500E+03   1.000000E+00
   4.130500E-03   0.000000E+00   1.108800E+05   8.107900E+03   1.000000E+00
   4.237600E-03   0.000000E+00   1.765900E+05   8.327699E+03   1.000000E+00
   4.349000E-03   0.000000E+00   8.732700E+04   8.058100E+03   1.000000E+00
   4.464700E-03   0.000000E+00   2.926300E+04   7.954300E+03   1.000000E+00
   4.585200E-03   0.000000E+00   3.300700E+04   7.960800E+03   1.000000E+00
   4.710600E-03   0.000000E+00   9.581500E+03   7.861500E+03   1.000000E+00
   4.841300E-03   0.000000E+00   2.323600E+04   7.841000E+03   1.000000E+00
   4.977400E-03   0.000000E+00   2.235700E+04   7.783700E+03   1.000000E+00
   5.119400E-03   0.000000E+00   2.433600E+04   7.747800E+03   1.000000E+00
   5.267600E-03   0.000000E+00   1.515300E+04   7.725300E+03   1.000000E+00
   5.422200E-03   0.000000E+00  -2.304600E+03   7.748200E+03   1.000000E+00
   5.583800E-03   0.000000E+00   9.226600E+03   7.661700E+03   1.000000E+00
   5.752700E-03   0.000000E+00   3.112900E+04   7.696200E+03   1.000000E+00
   5.929400E-03   0.000000E+00   2.418900E+04   8.284400E+03   1.000000E+00
   6.114400E-03   0.000000E+00   1.035300E+05   7.697000E+03   1.000000E+00
   6.308100E-03   0.000000E+00   1.907700E+05   7.873500E+03   1.000000E+00
   6.511200E-03   0.000000E+00   8.221800E+04   7.678400E+03   1.000000E+00
   6.724300E-03   0.000000E+00   4.014400E+04   7.514500E+03   1.000000E+00
   6.948000E-03   0.000000E+00   3.336100E+04   7.481300E+03   1.000000E+00
   7.183000E-03   0.000000E+00   1.776900E+04   7.415200E+03   1.000000E+00
   7.430200E-03   0.000000E+00   1.957100E+04   7.374400E+03   1.000000E+00
   7.690400E-03   0.000000E+00   2.792700E+04   7.317300E+03   1.000000E+00
   7.964500E-03   0.000000E+00   9.725000E+03   7.345900E+03   1.000000E+00
   8.253500E-03   0.000000E+00   1.481700E+04   7.324300E+03   1.000000E+00
   8.558500E-03   0.000000E+00   1.635500E+03   7.245600E+03   1.000000E+00
   8.880800E-03   0.000000E+00   1.118500E+04   7.210900E+03   1.000000E+00
   9.221599E-03   0.000000E+00   5.946200E+04   7.281200E+03   1.000000E+00
   9.582400E-03   0.000000E+00   1.610800E+04   7.086000E+03   1.000000E+00
   9.964800E-03   0.000000E+00   8.970601E+03   7.078800E+03   1.000000E+00
   1.037100E-02   0.000000E+00   1.340700E+04   7.055500E+03   1.000000E+00
   1.080200E-02   0.000000E+00   2.419100E+03   7.037200E+03   1.000000E+00
   1.126000E-02   0.000000E+00   9.224600E+03   7.044300E+03   1.000000E+00
   1.174800E-02   0.000000E+00   2.724700E+04   7.054100E+03   1.000000E+00
   1.226900E-02   0.000000E+00   2.007900E+04   7.027700E+03   1.000000E+00
   1.282500E-02   0.000000E+00   6.027200E+03   6.991800E+03   1.000000E+00
   1.342000E-02   0.000000E+00   5.703800E+03   6.922700E+03   1.000000E+00
   1.405800E-02   0.000000E+00   1.009100E+04   6.873600E+03   1.000000E+00
   1.474100E-02   0.000000E+00   2.898100E+04   6.844100E+03   1.000000E+00
   1.547600E-02   0.000000E+00   1.419800E+04   6.796400E+03   1.000000E+00
# reference:
#   author: S.Raman,E.T.Jurney,J.A.Harvey,N.W.Hill
#   title: Neutron capture and absorption of 59Ni for thermal and  resonance-energy neutrons
#   journal: Prog: Oak Ridge National Lab. Reports, No.5025, p.110 (1975)
