# header: 
#   title: Ni59(n,tot) cross section
#   source: EXFOR
#   user: Arjan Koning
#   date: 2025-12-18
#   format: YANDF-0.4
# exfor: 
#   author: Raman
#   year: 1975
#   subentry: 13774004
#   X4 reaction: 28-NI-59(N,TOT),,SIG
#   X4 source: IAEA-NDS C5 file, database version 2023-08-08
#   X4 link: https://nds.iaea.org/EXFOR/13774004
# target: 
#   Z: 28
#   A: 59
#   nuclide: Ni59
# reaction: 
#   type: (n,tot)
#   ENDF_MF: 3
#   ENDF_MT: 1
#   quantity: 
#     type: cross section
#   datablock: 
#     columns: 5
#     entries: 387
##       E             dE             xs             dxs       Normalization
##     [MeV]          [MeV]          [mb]           [mb]            []
   5.346900E-05   0.000000E+00   2.131400E+04   1.341600E+04   1.000000E+00
   5.381900E-05   0.000000E+00   3.951300E+04   1.338600E+04   1.000000E+00
   5.417200E-05   0.000000E+00   3.468600E+04   1.336000E+04   1.000000E+00
   5.452900E-05   0.000000E+00   1.687900E+04   1.333400E+04   1.000000E+00
   5.488900E-05   0.000000E+00   2.874500E+04   1.330200E+04   1.000000E+00
   5.525300E-05   0.000000E+00   2.204700E+04   1.326600E+04   1.000000E+00
   5.562100E-05   0.000000E+00   3.996800E+04   1.324800E+04   1.000000E+00
   5.599200E-05   0.000000E+00   4.990200E+03   1.321900E+04   1.000000E+00
   5.636700E-05   0.000000E+00   3.174700E+04   1.319100E+04   1.000000E+00
   5.674600E-05   0.000000E+00   2.378000E+04   1.317000E+04   1.000000E+00
   5.712900E-05   0.000000E+00   6.250400E+03   1.315700E+04   1.000000E+00
   5.751500E-05   0.000000E+00   1.400900E+04   1.311500E+04   1.000000E+00
   5.790600E-05   0.000000E+00   4.022600E+04   1.307400E+04   1.000000E+00
   5.830000E-05   0.000000E+00   1.937100E+04   1.305200E+04   1.000000E+00
   5.869900E-05   0.000000E+00   4.677400E+04   1.302800E+04   1.000000E+00
   5.910100E-05   0.000000E+00   2.211000E+04   1.299200E+04   1.000000E+00
   5.950800E-05   0.000000E+00   4.266800E+03   1.297700E+04   1.000000E+00
   5.991900E-05   0.000000E+00   2.709700E+04   1.294300E+04   1.000000E+00
   6.033400E-05   0.000000E+00   1.208700E+04   1.290700E+04   1.000000E+00
   6.075400E-05   0.000000E+00   2.165600E+04   1.289900E+04   1.000000E+00
   6.117800E-05   0.000000E+00  -5.260900E+02   1.285100E+04   1.000000E+00
   6.160600E-05   0.000000E+00   2.687700E+04   1.282500E+04   1.000000E+00
   6.203900E-05   0.000000E+00   2.505400E+04   1.280000E+04   1.000000E+00
   6.247700E-05   0.000000E+00  -1.286300E+03   1.277400E+04   1.000000E+00
   6.291900E-05   0.000000E+00   6.186600E+03   1.277000E+04   1.000000E+00
   6.336600E-05   0.000000E+00   2.760600E+04   1.274900E+04   1.000000E+00
   6.381800E-05   0.000000E+00   2.306800E+04   1.271700E+04   1.000000E+00
   6.427401E-05   0.000000E+00  -1.128700E+04   1.267900E+04   1.000000E+00
   6.473500E-05   0.000000E+00  -7.580200E+03   1.263500E+04   1.000000E+00
   6.520200E-05   0.000000E+00   2.181700E+04   1.262200E+04   1.000000E+00
   6.567300E-05   0.000000E+00   4.868800E+04   1.256300E+04   1.000000E+00
   6.615000E-05   0.000000E+00   1.416500E+04   1.255700E+04   1.000000E+00
   6.663200E-05   0.000000E+00   3.501800E+04   1.253400E+04   1.000000E+00
   6.711901E-05   0.000000E+00   2.725700E+04   1.250500E+04   1.000000E+00
   6.761100E-05   0.000000E+00   4.286800E+04   1.247900E+04   1.000000E+00
   6.810900E-05   0.000000E+00   4.582300E+04   1.246000E+04   1.000000E+00
   6.861300E-05   0.000000E+00   3.943200E+04   1.242700E+04   1.000000E+00
   6.912200E-05   0.000000E+00  -2.234200E+02   1.239900E+04   1.000000E+00
   6.963600E-05   0.000000E+00   2.973000E+04   1.237400E+04   1.000000E+00
   7.015700E-05   0.000000E+00   1.612200E+04   1.234900E+04   1.000000E+00
   7.068300E-05   0.000000E+00   9.670101E+03   1.232200E+04   1.000000E+00
   7.121500E-05   0.000000E+00   1.521300E+04   1.230300E+04   1.000000E+00
   7.175400E-05   0.000000E+00   8.239300E+03   1.227100E+04   1.000000E+00
   7.229800E-05   0.000000E+00   6.093300E+03   1.224700E+04   1.000000E+00
   7.284900E-05   0.000000E+00   1.190600E+04   1.222200E+04   1.000000E+00
   7.340600E-05   0.000000E+00   4.622600E+04   1.219700E+04   1.000000E+00
   7.396900E-05   0.000000E+00   2.175400E+04   1.215300E+04   1.000000E+00
   7.453900E-05   0.000000E+00   2.687100E+04   1.213600E+04   1.000000E+00
   7.511600E-05   0.000000E+00   8.804100E+03   1.211400E+04   1.000000E+00
   7.569900E-05   0.000000E+00   2.262600E+04   1.206900E+04   1.000000E+00
   7.628900E-05   0.000000E+00   1.666800E+04   1.204800E+04   1.000000E+00
   7.688600E-05   0.000000E+00   2.047100E+04   1.205400E+04   1.000000E+00
   7.749000E-05   0.000000E+00   5.193300E+03   1.202000E+04   1.000000E+00
   7.810099E-05   0.000000E+00   3.723900E+04   1.197900E+04   1.000000E+00
   7.871900E-05   0.000000E+00   5.139100E+04   1.195200E+04   1.000000E+00
   7.934500E-05   0.000000E+00   1.452000E+04   1.193100E+04   1.000000E+00
   7.997800E-05   0.000000E+00   1.036300E+04   1.188100E+04   1.000000E+00
   8.061900E-05   0.000000E+00  -1.002500E+04   1.187300E+04   1.000000E+00
   8.126800E-05   0.000000E+00   2.309600E+04   1.183800E+04   1.000000E+00
   8.192400E-05   0.000000E+00   7.914400E+03   1.179900E+04   1.000000E+00
   8.258899E-05   0.000000E+00   2.131000E+04   1.178100E+04   1.000000E+00
   8.326100E-05   0.000000E+00   2.477800E+04   1.176900E+04   1.000000E+00
   8.394200E-05   0.000000E+00  -1.271600E+03   1.173200E+04   1.000000E+00
   8.463100E-05   0.000000E+00   1.651100E+04   1.171300E+04   1.000000E+00
   8.532900E-05   0.000000E+00   1.511500E+04   1.171600E+04   1.000000E+00
   8.603600E-05   0.000000E+00   7.387700E+03   1.167000E+04   1.000000E+00
   8.675100E-05   0.000000E+00   3.081700E+04   1.162500E+04   1.000000E+00
   8.747500E-05   0.000000E+00   6.904000E+03   1.160800E+04   1.000000E+00
   8.820800E-05   0.000000E+00   1.730700E+04   1.157100E+04   1.000000E+00
   8.895100E-05   0.000000E+00   1.902000E+04   1.155500E+04   1.000000E+00
   8.970300E-05   0.000000E+00   8.124100E+03   1.153400E+04   1.000000E+00
   9.046400E-05   0.000000E+00   1.935000E+04   1.150100E+04   1.000000E+00
   9.123500E-05   0.000000E+00   2.661900E+04   1.147600E+04   1.000000E+00
   9.201700E-05   0.000000E+00   9.575400E+03   1.145600E+04   1.000000E+00
   9.280800E-05   0.000000E+00   2.527300E+04   1.140600E+04   1.000000E+00
   9.360900E-05   0.000000E+00   3.315100E+04   1.138800E+04   1.000000E+00
   9.442100E-05   0.000000E+00   2.278800E+04   1.137300E+04   1.000000E+00
   9.524400E-05   0.000000E+00   2.054300E+04   1.133900E+04   1.000000E+00
   9.607700E-05   0.000000E+00   2.250600E+04   1.130600E+04   1.000000E+00
   9.692099E-05   0.000000E+00   2.599500E+04   1.128800E+04   1.000000E+00
   9.777700E-05   0.000000E+00   2.132500E+03   1.122000E+04   1.000000E+00
   9.864400E-05   0.000000E+00   2.439700E+04   1.123300E+04   1.000000E+00
   9.952200E-05   0.000000E+00   3.191700E+04   1.122100E+04   1.000000E+00
   1.004100E-04   0.000000E+00   1.057000E+04   1.119300E+04   1.000000E+00
   1.013100E-04   0.000000E+00   3.743900E+04   1.116000E+04   1.000000E+00
   1.022000E-04   0.000000E+00   7.652800E+03   1.338900E+04   1.000000E+00
   1.027700E-04   0.000000E+00   2.476700E+04   1.573900E+04   1.000000E+00
   1.032300E-04   0.000000E+00   5.597200E+04   1.570000E+04   1.000000E+00
   1.037000E-04   0.000000E+00   3.448100E+04   1.569200E+04   1.000000E+00
   1.041700E-04   0.000000E+00   3.216400E+04   1.563900E+04   1.000000E+00
   1.046500E-04   0.000000E+00   2.524900E+04   1.562400E+04   1.000000E+00
   1.051300E-04   0.000000E+00   4.722600E+04   1.560100E+04   1.000000E+00
   1.056100E-04   0.000000E+00   1.404900E+04   1.560500E+04   1.000000E+00
   1.060900E-04   0.000000E+00   8.420500E+03   1.560700E+04   1.000000E+00
   1.065800E-04   0.000000E+00   2.502000E+04   1.556200E+04   1.000000E+00
   1.070700E-04   0.000000E+00   4.985100E+04   1.554200E+04   1.000000E+00
   1.075700E-04   0.000000E+00   1.899700E+04   1.554000E+04   1.000000E+00
   1.080700E-04   0.000000E+00   3.249700E+04   1.551800E+04   1.000000E+00
   1.085700E-04   0.000000E+00   4.289700E+03   1.548700E+04   1.000000E+00
   1.090800E-04   0.000000E+00   4.106400E+04   1.547100E+04   1.000000E+00
   1.095800E-04   0.000000E+00   2.963200E+04   1.543000E+04   1.000000E+00
   1.101000E-04   0.000000E+00  -1.047400E+04   1.541900E+04   1.000000E+00
   1.106100E-04   0.000000E+00  -2.801000E+03   1.540200E+04   1.000000E+00
   1.111300E-04   0.000000E+00   2.137000E+04   1.540400E+04   1.000000E+00
   1.116600E-04   0.000000E+00   2.928500E+03   1.538300E+04   1.000000E+00
   1.121800E-04   0.000000E+00   1.177600E+04   1.535000E+04   1.000000E+00
   1.127200E-04   0.000000E+00   2.776400E+04   1.529900E+04   1.000000E+00
   1.132500E-04   0.000000E+00   2.565800E+04   1.527500E+04   1.000000E+00
   1.137900E-04   0.000000E+00   1.376000E+04   1.525200E+04   1.000000E+00
   1.143300E-04   0.000000E+00   4.126000E+04   1.525800E+04   1.000000E+00
   1.148800E-04   0.000000E+00   2.434000E+04   1.527500E+04   1.000000E+00
   1.154300E-04   0.000000E+00   3.149600E+04   1.525300E+04   1.000000E+00
   1.159800E-04   0.000000E+00  -6.884200E+03   1.523100E+04   1.000000E+00
   1.165400E-04   0.000000E+00   2.452900E+04   1.520200E+04   1.000000E+00
   1.171000E-04   0.000000E+00   4.628500E+04   1.518500E+04   1.000000E+00
   1.176700E-04   0.000000E+00   2.022100E+04   1.515100E+04   1.000000E+00
   1.182400E-04   0.000000E+00   4.236700E+04   1.514500E+04   1.000000E+00
   1.188100E-04   0.000000E+00   3.866500E+04   1.511000E+04   1.000000E+00
   1.193900E-04   0.000000E+00   6.536600E+03   1.509200E+04   1.000000E+00
   1.199800E-04   0.000000E+00   4.590300E+04   1.507200E+04   1.000000E+00
   1.205600E-04   0.000000E+00   1.474500E+04   1.505400E+04   1.000000E+00
   1.211600E-04   0.000000E+00   7.599600E+03   1.501300E+04   1.000000E+00
   1.217500E-04   0.000000E+00   2.913600E+04   1.500200E+04   1.000000E+00
   1.223500E-04   0.000000E+00   3.419000E+04   1.497500E+04   1.000000E+00
   1.229600E-04   0.000000E+00   1.424600E+04   1.493800E+04   1.000000E+00
   1.235700E-04   0.000000E+00   2.741300E+04   1.492500E+04   1.000000E+00
   1.241800E-04   0.000000E+00   3.936200E+04   1.486100E+04   1.000000E+00
   1.248000E-04   0.000000E+00   3.934100E+04   1.485000E+04   1.000000E+00
   1.254200E-04   0.000000E+00   3.140600E+04   1.480800E+04   1.000000E+00
   1.260500E-04   0.000000E+00   1.200000E+04   1.483600E+04   1.000000E+00
   1.266800E-04   0.000000E+00   3.084600E+04   1.485700E+04   1.000000E+00
   1.273200E-04   0.000000E+00   1.641500E+04   1.480100E+04   1.000000E+00
   1.279600E-04   0.000000E+00   4.671200E+04   1.477300E+04   1.000000E+00
   1.286100E-04   0.000000E+00   3.837400E+04   1.474400E+04   1.000000E+00
   1.292600E-04   0.000000E+00   5.743500E+04   1.476800E+04   1.000000E+00
   1.299200E-04   0.000000E+00   2.250200E+04   1.472200E+04   1.000000E+00
   1.305800E-04   0.000000E+00   2.476800E+04   1.472300E+04   1.000000E+00
   1.312500E-04   0.000000E+00   4.348200E+04   1.470900E+04   1.000000E+00
   1.319200E-04   0.000000E+00   9.913900E+03   1.469600E+04   1.000000E+00
   1.326000E-04   0.000000E+00   2.491900E+04   1.466500E+04   1.000000E+00
   1.332800E-04   0.000000E+00   3.300300E+04   1.464200E+04   1.000000E+00
   1.339700E-04   0.000000E+00   2.356500E+04   1.462900E+04   1.000000E+00
   1.346600E-04   0.000000E+00   2.385200E+04   1.461200E+04   1.000000E+00
   1.353600E-04   0.000000E+00   4.265500E+04   1.458800E+04   1.000000E+00
   1.360600E-04   0.000000E+00   1.200100E+04   1.457600E+04   1.000000E+00
   1.367700E-04   0.000000E+00   2.848700E+04   1.457800E+04   1.000000E+00
   1.374900E-04   0.000000E+00   2.319700E+04   1.455300E+04   1.000000E+00
   1.382100E-04   0.000000E+00   1.142900E+04   1.454900E+04   1.000000E+00
   1.389400E-04   0.000000E+00   1.289600E+04   1.453700E+04   1.000000E+00
   1.396700E-04   0.000000E+00   2.910400E+04   1.449000E+04   1.000000E+00
   1.404100E-04   0.000000E+00   5.676000E+04   1.447400E+04   1.000000E+00
   1.411500E-04   0.000000E+00   4.523000E+04   1.445300E+04   1.000000E+00
   1.419000E-04   0.000000E+00   1.535000E+04   1.446500E+04   1.000000E+00
   1.426500E-04   0.000000E+00   2.126100E+04   1.442700E+04   1.000000E+00
   1.434200E-04   0.000000E+00   2.257300E+04   1.443700E+04   1.000000E+00
   1.441800E-04   0.000000E+00   4.103900E+04   1.440300E+04   1.000000E+00
   1.449600E-04   0.000000E+00   4.073800E+03   1.437800E+04   1.000000E+00
   1.457400E-04   0.000000E+00   2.272300E+04   1.436300E+04   1.000000E+00
   1.465300E-04   0.000000E+00   1.124700E+04   1.435400E+04   1.000000E+00
   1.473200E-04   0.000000E+00  -3.991100E+03   1.433700E+04   1.000000E+00
   1.481200E-04   0.000000E+00   3.037300E+04   1.432100E+04   1.000000E+00
   1.489200E-04   0.000000E+00   5.428700E+04   1.432400E+04   1.000000E+00
   1.497400E-04   0.000000E+00   3.405700E+04   1.430100E+04   1.000000E+00
   1.505600E-04   0.000000E+00   2.512800E+04   1.428900E+04   1.000000E+00
   1.513800E-04   0.000000E+00   5.207400E+04   1.426400E+04   1.000000E+00
   1.522200E-04   0.000000E+00   2.589200E+04   1.425300E+04   1.000000E+00
   1.530500E-04   0.000000E+00   3.972000E+04   1.424400E+04   1.000000E+00
   1.539000E-04   0.000000E+00   3.073400E+04   1.421600E+04   1.000000E+00
   1.547600E-04   0.000000E+00   4.131600E+04   1.419200E+04   1.000000E+00
   1.556200E-04   0.000000E+00   5.254600E+03   1.417200E+04   1.000000E+00
   1.564800E-04   0.000000E+00   2.936300E+04   1.415100E+04   1.000000E+00
   1.573600E-04   0.000000E+00   3.869500E+04   1.414300E+04   1.000000E+00
   1.582400E-04   0.000000E+00   1.428900E+04   1.411800E+04   1.000000E+00
   1.591300E-04   0.000000E+00   1.183200E+04   1.410300E+04   1.000000E+00
   1.600300E-04   0.000000E+00   2.736000E+04   1.408000E+04   1.000000E+00
   1.609400E-04   0.000000E+00   5.439500E+04   1.406200E+04   1.000000E+00
   1.618500E-04   0.000000E+00   3.715300E+04   1.404700E+04   1.000000E+00
   1.627700E-04   0.000000E+00   2.754600E+04   1.404000E+04   1.000000E+00
   1.637000E-04   0.000000E+00   3.141700E+04   1.401900E+04   1.000000E+00
   1.646400E-04   0.000000E+00   5.124100E+04   1.398600E+04   1.000000E+00
   1.655800E-04   0.000000E+00   4.603300E+04   1.399100E+04   1.000000E+00
   1.665300E-04   0.000000E+00   3.169200E+04   1.399800E+04   1.000000E+00
   1.674900E-04   0.000000E+00   1.906500E+04   1.394700E+04   1.000000E+00
   1.684600E-04   0.000000E+00   3.594700E+04   1.393400E+04   1.000000E+00
   1.694400E-04   0.000000E+00   2.312500E+04   1.390800E+04   1.000000E+00
   1.704300E-04   0.000000E+00   5.738700E+04   1.386300E+04   1.000000E+00
   1.714200E-04   0.000000E+00   6.151100E+04   1.386000E+04   1.000000E+00
   1.724300E-04   0.000000E+00   2.768900E+04   1.380500E+04   1.000000E+00
   1.734400E-04   0.000000E+00   3.717200E+04   1.379200E+04   1.000000E+00
   1.744600E-04   0.000000E+00   1.612700E+04   1.383700E+04   1.000000E+00
   1.754900E-04   0.000000E+00   5.409400E+04   1.384200E+04   1.000000E+00
   1.765300E-04   0.000000E+00   1.941200E+04   1.381500E+04   1.000000E+00
   1.775800E-04   0.000000E+00   4.503800E+04   1.378700E+04   1.000000E+00
   1.786400E-04   0.000000E+00   5.965400E+04   1.375500E+04   1.000000E+00
   1.797100E-04   0.000000E+00   4.307300E+04   1.374200E+04   1.000000E+00
   1.807900E-04   0.000000E+00   6.072400E+04   1.373400E+04   1.000000E+00
   1.818700E-04   0.000000E+00   6.461500E+04   1.371300E+04   1.000000E+00
   1.829700E-04   0.000000E+00   7.937300E+04   1.371100E+04   1.000000E+00
   1.840800E-04   0.000000E+00   6.675900E+04   1.369100E+04   1.000000E+00
   1.852000E-04   0.000000E+00   8.202400E+04   1.367200E+04   1.000000E+00
   1.863200E-04   0.000000E+00   9.318900E+04   1.366900E+04   1.000000E+00
   1.874600E-04   0.000000E+00   9.773300E+04   1.363800E+04   1.000000E+00
   1.886100E-04   0.000000E+00   7.898400E+04   1.362900E+04   1.000000E+00
   1.897700E-04   0.000000E+00   1.094400E+05   1.361700E+04   1.000000E+00
   1.909400E-04   0.000000E+00   1.094100E+05   1.358500E+04   1.000000E+00
   1.921200E-04   0.000000E+00   1.459700E+05   1.352000E+04   1.000000E+00
   1.933100E-04   0.000000E+00   1.387400E+05   1.353800E+04   1.000000E+00
   1.945100E-04   0.000000E+00   1.528200E+05   1.359200E+04   1.000000E+00
   1.957300E-04   0.000000E+00   2.183000E+05   1.358700E+04   1.000000E+00
   1.969500E-04   0.000000E+00   2.133900E+05   1.355900E+04   1.000000E+00
   1.981900E-04   0.000000E+00   2.299200E+05   1.354700E+04   1.000000E+00
   1.994400E-04   0.000000E+00   2.641500E+05   1.354900E+04   1.000000E+00
   2.007000E-04   0.000000E+00   2.481300E+05   1.357600E+04   1.000000E+00
   2.019700E-04   0.000000E+00   3.021800E+05   1.355300E+04   1.000000E+00
   2.032500E-04   0.000000E+00   2.963600E+05   1.352300E+04   1.000000E+00
   2.045500E-04   0.000000E+00   2.763300E+05   1.350200E+04   1.000000E+00
   2.058600E-04   0.000000E+00   2.782800E+05   1.348000E+04   1.000000E+00
   2.071800E-04   0.000000E+00   2.548800E+05   1.345700E+04   1.000000E+00
   2.085100E-04   0.000000E+00   2.324800E+05   1.344200E+04   1.000000E+00
   2.098600E-04   0.000000E+00   2.061700E+05   1.340400E+04   1.000000E+00
   2.112200E-04   0.000000E+00   2.070500E+05   1.334400E+04   1.000000E+00
   2.126000E-04   0.000000E+00   1.607400E+05   1.329500E+04   1.000000E+00
   2.139800E-04   0.000000E+00   1.568000E+05   1.327700E+04   1.000000E+00
   2.153800E-04   0.000000E+00   1.592300E+05   1.328800E+04   1.000000E+00
   2.168000E-04   0.000000E+00   9.763400E+04   1.325000E+04   1.000000E+00
   2.182300E-04   0.000000E+00   8.995500E+04   1.322300E+04   1.000000E+00
   2.196700E-04   0.000000E+00   1.014200E+05   1.322500E+04   1.000000E+00
   2.211300E-04   0.000000E+00   1.094100E+05   1.323500E+04   1.000000E+00
   2.226000E-04   0.000000E+00   1.061800E+05   1.322700E+04   1.000000E+00
   2.240900E-04   0.000000E+00   6.174100E+04   1.321000E+04   1.000000E+00
   2.255900E-04   0.000000E+00   7.423000E+04   1.319500E+04   1.000000E+00
   2.271000E-04   0.000000E+00   5.975800E+04   1.310900E+04   1.000000E+00
   2.286300E-04   0.000000E+00   5.008600E+04   1.307300E+04   1.000000E+00
   2.301800E-04   0.000000E+00   4.624300E+04   1.313700E+04   1.000000E+00
   2.317500E-04   0.000000E+00   3.264600E+04   1.309800E+04   1.000000E+00
   2.333200E-04   0.000000E+00   4.925000E+04   1.302400E+04   1.000000E+00
   2.349200E-04   0.000000E+00   4.423300E+04   1.299900E+04   1.000000E+00
   2.365300E-04   0.000000E+00   5.152000E+04   1.297000E+04   1.000000E+00
   2.381600E-04   0.000000E+00   3.152700E+04   1.294300E+04   1.000000E+00
   2.398100E-04   0.000000E+00   1.611000E+04   1.292600E+04   1.000000E+00
   2.414700E-04   0.000000E+00   4.125300E+04   1.290100E+04   1.000000E+00
   2.431500E-04   0.000000E+00   4.971700E+04   1.289600E+04   1.000000E+00
   2.448400E-04   0.000000E+00   5.087200E+04   1.287200E+04   1.000000E+00
   2.465600E-04   0.000000E+00   2.591800E+04   1.286500E+04   1.000000E+00
   2.482900E-04   0.000000E+00   1.905700E+04   1.284100E+04   1.000000E+00
   2.500400E-04   0.000000E+00   5.199000E+04   1.281700E+04   1.000000E+00
   2.518100E-04   0.000000E+00   4.320000E+04   1.280200E+04   1.000000E+00
   2.536000E-04   0.000000E+00   3.032500E+04   1.276500E+04   1.000000E+00
   2.554100E-04   0.000000E+00   3.764000E+04   1.275800E+04   1.000000E+00
   2.572400E-04   0.000000E+00   4.393600E+04   1.274100E+04   1.000000E+00
   2.590900E-04   0.000000E+00   6.066500E+04   1.272400E+04   1.000000E+00
   2.609500E-04   0.000000E+00   4.693700E+04   1.269200E+04   1.000000E+00
   2.628400E-04   0.000000E+00   2.849600E+04   1.267800E+04   1.000000E+00
   2.647500E-04   0.000000E+00   2.870000E+04   1.266800E+04   1.000000E+00
   2.666800E-04   0.000000E+00   2.675000E+04   1.264000E+04   1.000000E+00
   2.686300E-04   0.000000E+00   3.900300E+04   1.260000E+04   1.000000E+00
   2.706000E-04   0.000000E+00   2.869500E+04   1.259100E+04   1.000000E+00
   2.725900E-04   0.000000E+00   2.712800E+04   1.258100E+04   1.000000E+00
   2.746100E-04   0.000000E+00   2.123300E+04   1.257800E+04   1.000000E+00
   2.766500E-04   0.000000E+00   3.618300E+03   1.255000E+04   1.000000E+00
   2.787100E-04   0.000000E+00   1.102300E+04   1.253400E+04   1.000000E+00
   2.807900E-04   0.000000E+00   6.746800E+03   1.253900E+04   1.000000E+00
   2.829000E-04   0.000000E+00   2.915200E+04   1.253500E+04   1.000000E+00
   2.850300E-04   0.000000E+00   9.671800E+03   1.246900E+04   1.000000E+00
   2.871800E-04   0.000000E+00   2.993900E+04   1.245500E+04   1.000000E+00
   2.893600E-04   0.000000E+00   1.160800E+04   1.244500E+04   1.000000E+00
   2.915700E-04   0.000000E+00   2.619900E+04   1.241900E+04   1.000000E+00
   2.938000E-04   0.000000E+00   2.267500E+04   1.239400E+04   1.000000E+00
   2.960500E-04   0.000000E+00   9.911399E+03   1.237100E+04   1.000000E+00
   2.983400E-04   0.000000E+00   2.144300E+04   1.235500E+04   1.000000E+00
   3.006400E-04   0.000000E+00   1.987100E+04   1.232300E+04   1.000000E+00
   3.029800E-04   0.000000E+00   4.266100E+04   1.232800E+04   1.000000E+00
   3.053400E-04   0.000000E+00   3.106400E+04   1.231400E+04   1.000000E+00
   3.077300E-04   0.000000E+00   4.458700E+04   1.226900E+04   1.000000E+00
   3.101500E-04   0.000000E+00   2.007400E+04   1.224700E+04   1.000000E+00
   3.126000E-04   0.000000E+00  -7.181200E+02   1.225500E+04   1.000000E+00
   3.150700E-04   0.000000E+00   2.848800E+04   1.221700E+04   1.000000E+00
   3.175800E-04   0.000000E+00   9.253700E+03   1.220400E+04   1.000000E+00
   3.201100E-04   0.000000E+00   3.642700E+04   1.218600E+04   1.000000E+00
   3.226800E-04   0.000000E+00   3.550700E+04   1.218100E+04   1.000000E+00
   3.252800E-04   0.000000E+00   2.389700E+04   1.215200E+04   1.000000E+00
   3.279000E-04   0.000000E+00   2.104400E+04   1.211500E+04   1.000000E+00
   3.305600E-04   0.000000E+00   2.536000E+04   1.212200E+04   1.000000E+00
   3.332600E-04   0.000000E+00   3.105700E+04   1.210100E+04   1.000000E+00
   3.359800E-04   0.000000E+00   1.067300E+04   1.208700E+04   1.000000E+00
   3.387400E-04   0.000000E+00   3.002000E+04   1.207100E+04   1.000000E+00
   3.415400E-04   0.000000E+00   1.113200E+04   1.206900E+04   1.000000E+00
   3.443600E-04   0.000000E+00   6.986200E+03   1.204100E+04   1.000000E+00
   3.472300E-04   0.000000E+00   2.138800E+04   1.202100E+04   1.000000E+00
   3.501300E-04   0.000000E+00   1.860500E+04   1.202100E+04   1.000000E+00
   3.530600E-04   0.000000E+00   1.905400E+04   1.196700E+04   1.000000E+00
   3.560400E-04   0.000000E+00   1.621200E+04   1.195600E+04   1.000000E+00
   3.590500E-04   0.000000E+00   2.074100E+04   1.193100E+04   1.000000E+00
   3.621000E-04   0.000000E+00   3.052200E+04   1.190700E+04   1.000000E+00
   3.651800E-04   0.000000E+00   3.447400E+04   1.187700E+04   1.000000E+00
   3.683100E-04   0.000000E+00   1.553400E+04   1.186500E+04   1.000000E+00
   3.714800E-04   0.000000E+00   4.964300E+03   1.185800E+04   1.000000E+00
   3.746900E-04   0.000000E+00   2.383400E+04   1.182900E+04   1.000000E+00
   3.779400E-04   0.000000E+00   9.285500E+03   1.181800E+04   1.000000E+00
   3.812300E-04   0.000000E+00   1.141900E+04   1.179200E+04   1.000000E+00
   3.845700E-04   0.000000E+00   1.754500E+04   1.176600E+04   1.000000E+00
   3.879500E-04   0.000000E+00   2.422300E+04   1.177000E+04   1.000000E+00
   3.913800E-04   0.000000E+00   2.191300E+04   1.174100E+04   1.000000E+00
   3.948500E-04   0.000000E+00   4.040200E+04   1.171800E+04   1.000000E+00
   3.983700E-04   0.000000E+00   4.726400E+04   1.171000E+04   1.000000E+00
   4.019300E-04   0.000000E+00   1.776900E+04   1.168100E+04   1.000000E+00
   4.055400E-04   0.000000E+00   8.434000E+03   1.164400E+04   1.000000E+00
   4.075700E-04   0.000000E+00   7.160600E+03   3.489700E+04   1.000000E+00
   4.079800E-04   0.000000E+00  -1.348300E+03   3.484400E+04   1.000000E+00
   4.083800E-04   0.000000E+00   3.603900E+03   3.500000E+04   1.000000E+00
   4.087900E-04   0.000000E+00   2.312500E+04   3.487600E+04   1.000000E+00
   4.092000E-04   0.000000E+00   1.140000E+05   3.501000E+04   1.000000E+00
   4.096100E-04   0.000000E+00   6.926300E+04   3.490100E+04   1.000000E+00
   4.100200E-04   0.000000E+00   2.972800E+02   3.503000E+04   1.000000E+00
   4.104300E-04   0.000000E+00  -5.748500E+03   4.949700E+04   1.000000E+00
   4.107400E-04   0.000000E+00   5.950100E+04   4.948900E+04   1.000000E+00
   4.109500E-04   0.000000E+00   1.410000E+04   4.949900E+04   1.000000E+00
   4.111500E-04   0.000000E+00   3.798500E+04   4.944000E+04   1.000000E+00
   4.113600E-04   0.000000E+00   3.386200E+04   4.942600E+04   1.000000E+00
   4.115700E-04   0.000000E+00  -4.494100E+04   4.946000E+04   1.000000E+00
   4.117700E-04   0.000000E+00   3.375900E+04   4.936500E+04   1.000000E+00
   4.119800E-04   0.000000E+00   8.937601E+03   4.927300E+04   1.000000E+00
   4.121900E-04   0.000000E+00  -7.788200E+03   4.921400E+04   1.000000E+00
   4.124000E-04   0.000000E+00   4.299500E+04   4.922300E+04   1.000000E+00
   4.126000E-04   0.000000E+00   3.093000E+04   4.946100E+04   1.000000E+00
   4.128100E-04   0.000000E+00   2.534400E+04   4.920600E+04   1.000000E+00
   4.130200E-04   0.000000E+00  -6.405600E+04   4.924300E+04   1.000000E+00
   4.132300E-04   0.000000E+00  -2.480800E+04   4.934600E+04   1.000000E+00
   4.134300E-04   0.000000E+00  -5.073000E+03   4.937100E+04   1.000000E+00
   4.136400E-04   0.000000E+00   1.255300E+05   4.930000E+04   1.000000E+00
   4.138500E-04   0.000000E+00  -4.959000E+04   4.933900E+04   1.000000E+00
   4.140600E-04   0.000000E+00  -2.433600E+04   4.926400E+04   1.000000E+00
   4.142700E-04   0.000000E+00   1.181100E+04   4.919200E+04   1.000000E+00
   4.144800E-04   0.000000E+00  -1.569600E+04   4.920900E+04   1.000000E+00
   4.146800E-04   0.000000E+00   3.914500E+04   4.922100E+04   1.000000E+00
   4.148900E-04   0.000000E+00   4.564300E+04   4.931500E+04   1.000000E+00
   4.151000E-04   0.000000E+00   9.870800E+04   4.933300E+04   1.000000E+00
   4.153100E-04   0.000000E+00   8.902800E+04   4.953400E+04   1.000000E+00
   4.155200E-04   0.000000E+00   8.302200E+04   4.933500E+04   1.000000E+00
   4.157300E-04   0.000000E+00   1.192700E+05   4.937800E+04   1.000000E+00
   4.159400E-04   0.000000E+00   1.557200E+05   4.929800E+04   1.000000E+00
   4.161500E-04   0.000000E+00   1.010200E+05   4.927500E+04   1.000000E+00
   4.163600E-04   0.000000E+00   7.369400E+04   4.937200E+04   1.000000E+00
   4.165700E-04   0.000000E+00   7.302400E+04   4.938500E+04   1.000000E+00
   4.167800E-04   0.000000E+00  -5.195400E+04   4.926400E+04   1.000000E+00
   4.169900E-04   0.000000E+00  -8.402500E+04   4.933900E+04   1.000000E+00
   4.172000E-04   0.000000E+00  -9.626400E+03   4.946900E+04   1.000000E+00
   4.174100E-04   0.000000E+00  -2.569300E+04   4.932000E+04   1.000000E+00
   4.176200E-04   0.000000E+00   7.413500E+04   4.928400E+04   1.000000E+00
   4.178400E-04   0.000000E+00  -6.432300E+03   4.933200E+04   1.000000E+00
   4.180500E-04   0.000000E+00   6.743000E+04   4.931100E+04   1.000000E+00
   4.191100E-04   0.000000E+00   2.642500E+04   1.643500E+04   1.000000E+00
   4.210200E-04   0.000000E+00   3.554100E+04   1.642800E+04   1.000000E+00
   4.229500E-04   0.000000E+00   1.820100E+04   1.640100E+04   1.000000E+00
   4.249000E-04   0.000000E+00   2.524900E+04   1.638000E+04   1.000000E+00
   4.268500E-04   0.000000E+00   6.955800E+02   1.636500E+04   1.000000E+00
   4.288300E-04   0.000000E+00  -3.267400E+03   1.639500E+04   1.000000E+00
   4.308100E-04   0.000000E+00   2.363900E+04   1.637800E+04   1.000000E+00
   4.328100E-04   0.000000E+00   3.387000E+04   1.635300E+04   1.000000E+00
   4.348200E-04   0.000000E+00   1.299300E+04   1.637900E+04   1.000000E+00
   4.368500E-04   0.000000E+00   1.548100E+04   1.634700E+04   1.000000E+00
   4.388900E-04   0.000000E+00   5.500800E+04   1.635900E+04   1.000000E+00
   4.409400E-04   0.000000E+00   2.413300E+04   1.638500E+04   1.000000E+00
   4.430100E-04   0.000000E+00   4.073000E+04   1.634900E+04   1.000000E+00
   4.450900E-04   0.000000E+00   1.165900E+04   1.637000E+04   1.000000E+00
   4.471900E-04   0.000000E+00   1.556500E+04   1.636600E+04   1.000000E+00
   4.493000E-04   0.000000E+00   3.115700E+04   1.635900E+04   1.000000E+00
   4.514300E-04   0.000000E+00   2.423000E+04   1.632500E+04   1.000000E+00
   4.535800E-04   0.000000E+00   1.566700E+04   1.628500E+04   1.000000E+00
   4.557300E-04   0.000000E+00   1.888900E+04   1.627400E+04   1.000000E+00
   4.579100E-04   0.000000E+00   5.435200E+03   1.622800E+04   1.000000E+00
   4.601000E-04   0.000000E+00   9.493000E+03   1.619100E+04   1.000000E+00
   4.623000E-04   0.000000E+00  -8.260600E+02   1.622500E+04   1.000000E+00
   4.645200E-04   0.000000E+00   4.410700E+04   1.617800E+04   1.000000E+00
   4.667600E-04   0.000000E+00   1.428400E+04   1.616800E+04   1.000000E+00
   4.690200E-04   0.000000E+00   3.893400E+04   1.615300E+04   1.000000E+00
   4.712900E-04   0.000000E+00   2.016600E+04   1.613000E+04   1.000000E+00
   4.735700E-04   0.000000E+00   3.761700E+04   1.610400E+04   1.000000E+00
   4.758800E-04   0.000000E+00   2.934200E+04   1.609400E+04   1.000000E+00
   4.782000E-04   0.000000E+00   2.322400E+04   1.610600E+04   1.000000E+00
   4.805300E-04   0.000000E+00   2.996700E+04   1.608200E+04   1.000000E+00
   4.828900E-04   0.000000E+00   7.113500E+03   1.605900E+04   1.000000E+00
   4.852600E-04   0.000000E+00   1.367700E+04   1.603400E+04   1.000000E+00
   4.876500E-04   0.000000E+00   5.116800E+04   1.599300E+04   1.000000E+00
   4.900500E-04   0.000000E+00   2.704300E+04   1.603800E+04   1.000000E+00
   4.924800E-04   0.000000E+00   2.304900E+04   1.600600E+04   1.000000E+00
   4.949200E-04   0.000000E+00   2.777000E+04   1.604400E+04   1.000000E+00
# reference:
#   author: S.Raman,E.T.Jurney,J.A.Harvey,N.W.Hill
#   title: Neutron capture and absorption of 59Ni for thermal and  resonance-energy neutrons
#   journal: Prog: Oak Ridge National Lab. Reports, No.5025, p.110 (1975)
